# Pulseq sequence file
# Created by MATLAB mr toolbox

[VERSION]
major 1
minor 3
revision 1

[DEFINITIONS]
FOV 0.256 0.256 0.256 
Name 3D_radial_stackOfStars 
TotalDuration 1.13796 

# Format of blocks:
#  #  D RF  GX  GY  GZ ADC EXT
[BLOCKS]
  1  0  1   2   3   1  0  0
  2  1  0   5   6   4  0  0
  3  0  2   8   9   7  0  0
  4  1  0  11  12  10  0  0
  5  0  3  14  15  13  0  0
  6  1  0  17  18  16  0  0
  7  0  4  20  21  19  0  0
  8  1  0  23  24  22  0  0
  9  0  5  26  27  25  0  0
 10  1  0  29  30  28  0  0
 11  0  6   2   3   1  0  0
 12  1  0   5   6   4  1  0
 13  0  7   8   9   7  0  0
 14  1  0  11  12  10  2  0
 15  0  8  14  15  13  0  0
 16  1  0  17  18  16  3  0
 17  0  9  20  21  19  0  0
 18  1  0  23  24  22  4  0
 19  0 10  26  27  25  0  0
 20  1  0  29  30  28  5  0
 21  0  6  32  33  31  0  0
 22  1  0  35  36  34  1  0
 23  0 11  38  39  37  0  0
 24  1  0  41  42  40  6  0
 25  0 12  44  45  43  0  0
 26  1  0  47  48  46  7  0
 27  0 13  50  51  49  0  0
 28  1  0  53  54  52  8  0
 29  0 14  56  57  55  0  0
 30  1  0  59  60  58  9  0
 31  0  1  62  63  61  0  0
 32  1  0  65  66  64 10  0
 33  0 15  68  69  67  0  0
 34  1  0  71  72  70 11  0
 35  0 16  74  75  73  0  0
 36  1  0  77  78  76 12  0
 37  0 13  80  81  79  0  0
 38  1  0  83  84  82  8  0
 39  0 17  86  87  85  0  0
 40  1  0  89  90  88 13  0
 41  0  5  92  93  91  0  0
 42  1  0  95  96  94 14  0
 43  0 18  98  99  97  0  0
 44  1  0 101 102 100 15  0
 45  0 19 104 105 103  0  0
 46  1  0 107 108 106 16  0
 47  0  9 110 111 109  0  0
 48  1  0 113 114 112  4  0
 49  0 20 116 117 115  0  0
 50  1  0 119 120 118 17  0
 51  0 10 122 123 121  0  0
 52  1  0 125 126 124  5  0
 53  0 18 128 129 127  0  0
 54  1  0 131 132 130 15  0
 55  0 21 134 135 133  0  0
 56  1  0 137 138 136 18  0
 57  0  4 140 141 139  0  0
 58  1  0 143 144 142 19  0
 59  0 22 146 147 145  0  0
 60  1  0 149 150 148 20  0
 61  0 14 152 153 151  0  0
 62  1  0 155 156 154  9  0
 63  0 15 158 159 157  0  0
 64  1  0 161 162 160 11  0
 65  0 23 164 165 163  0  0
 66  1  0 167 168 166 21  0
 67  0  2 170 171 169  0  0
 68  1  0 173 174 172 22  0
 69  0 22 176 177 175  0  0
 70  1  0 179 180 178 20  0
 71  0 17 182 183 181  0  0
 72  1  0 185 186 184 13  0
 73  0 11 188 189 187  0  0
 74  1  0 191 192 190  6  0
 75  0 24 194 195 193  0  0
 76  1  0 197 198 196 23  0
 77  0  7 200 201 199  0  0
 78  1  0 203 204 202  2  0
 79  0 20 206 207 205  0  0
 80  1  0 209 210 208 17  0
 81  0 20 212 213 211  0  0
 82  1  0 215 216 214 17  0
 83  0  7 218 219 217  0  0
 84  1  0 221 222 220  2  0
 85  0 24 224 225 223  0  0
 86  1  0 227 228 226 23  0
 87  0 11 230 231 229  0  0
 88  1  0 233 234 232  6  0
 89  0 17 236 237 235  0  0
 90  1  0 239 240 238 13  0
 91  0 22 242 243 241  0  0
 92  1  0 245 246 244 20  0
 93  0  2 248 249 247  0  0
 94  1  0 251 252 250 22  0
 95  0 23 254 255 253  0  0
 96  1  0 257 258 256 21  0
 97  0 15 260 261 259  0  0
 98  1  0 263 264 262 11  0
 99  0 14 266 267 265  0  0
100  1  0 269 270 268  9  0
101  0 22 272 273 271  0  0
102  1  0 275 276 274 20  0
103  0  4 278 279 277  0  0
104  1  0 281 282 280 19  0
105  0 21 284 285 283  0  0
106  1  0 287 288 286 18  0
107  0 18 290 291 289  0  0
108  1  0 293 294 292 15  0
109  0 10 296 297 295  0  0
110  1  0 299 300 298  5  0
111  0 20 302 303 301  0  0
112  1  0 305 306 304 17  0
113  0  9 308 309 307  0  0
114  1  0 311 312 310  4  0
115  0 19 314 315 313  0  0
116  1  0 317 318 316 16  0
117  0 18 320 321 319  0  0
118  1  0 323 324 322 15  0
119  0  5 326 327 325  0  0
120  1  0 329 330 328 14  0
121  0 17 332 333 331  0  0
122  1  0 335 336 334 13  0
123  0 13 338 339 337  0  0
124  1  0 341 342 340  8  0
125  0 16 344 345 343  0  0
126  1  0 347 348 346 12  0
127  0 15 350 351 349  0  0
128  1  0 353 354 352 11  0
129  0  1 356 357 355  0  0
130  1  0 359 360 358 10  0
131  0 14 362 363 361  0  0
132  1  0 365 366 364  9  0
133  0 13 368 369 367  0  0
134  1  0 371 372 370  8  0
135  0 12 374 375 373  0  0
136  1  0 377 378 376  7  0
137  0 11 380 381 379  0  0
138  1  0 383 384 382  6  0
139  0  6 386 387 385  0  0
140  1  0 389 390 388  1  0
141  0 10 392 393 391  0  0
142  1  0 395 396 394  5  0
143  0  9 398 399 397  0  0
144  1  0 401 402 400  4  0
145  0  8 404 405 403  0  0
146  1  0 407 408 406  3  0
147  0  7 410 411 409  0  0
148  1  0 413 414 412  2  0
149  0  6 416 417 415  0  0
150  1  0 419 420 418  1  0
151  0  5 422 423 421  0  0
152  1  0 425 426 424 14  0
153  0  4 428 429 427  0  0
154  1  0 431 432 430 19  0
155  0  3 434 435 433  0  0
156  1  0 437 438 436 24  0
157  0  2 440 441 439  0  0
158  1  0 443 444 442 22  0
159  0  1 446 447 445  0  0
160  1  0 449 450 448 10  0
161  0  1 452 453 451  0  0
162  1  0 455 456 454 10  0
163  0  2 458 459 457  0  0
164  1  0 461 462 460 22  0
165  0  3 464 465 463  0  0
166  1  0 467 468 466 24  0
167  0  4 470 471 469  0  0
168  1  0 473 474 472 19  0
169  0  5 476 477 475  0  0
170  1  0 479 480 478 14  0
171  0  6 482 483 481  0  0
172  1  0 485 486 484  1  0
173  0  7 488 489 487  0  0
174  1  0 491 492 490  2  0
175  0  8 494 495 493  0  0
176  1  0 497 498 496  3  0
177  0  9 500 501 499  0  0
178  1  0 503 504 502  4  0
179  0 10 506 507 505  0  0
180  1  0 509 510 508  5  0
181  0  6 512 513 511  0  0
182  1  0 515 516 514  1  0
183  0 11 518 519 517  0  0
184  1  0 521 522 520  6  0
185  0 12 524 525 523  0  0
186  1  0 527 528 526  7  0
187  0 13 530 531 529  0  0
188  1  0 533 534 532  8  0
189  0 14 536 537 535  0  0
190  1  0 539 540 538  9  0
191  0  1 542 543 541  0  0
192  1  0 545 546 544 10  0
193  0 15 548 549 547  0  0
194  1  0 551 552 550 11  0
195  0 16 554 555 553  0  0
196  1  0 557 558 556 12  0
197  0 13 560 561 559  0  0
198  1  0 563 564 562  8  0
199  0 17 566 567 565  0  0
200  1  0 569 570 568 13  0
201  0  5 572 573 571  0  0
202  1  0 575 576 574 14  0
203  0 18 578 579 577  0  0
204  1  0 581 582 580 15  0
205  0 19 584 585 583  0  0
206  1  0 587 588 586 16  0
207  0  9 590 591 589  0  0
208  1  0 593 594 592  4  0
209  0 20 596 597 595  0  0
210  1  0 599 600 598 17  0
211  0 10 602 603 601  0  0
212  1  0 605 606 604  5  0
213  0 18 608 609 607  0  0
214  1  0 611 612 610 15  0
215  0 21 614 615 613  0  0
216  1  0 617 618 616 18  0
217  0  4 620 621 619  0  0
218  1  0 623 624 622 19  0
219  0 22 626 627 625  0  0
220  1  0 629 630 628 20  0
221  0 14 632 633 631  0  0
222  1  0 635 636 634  9  0
223  0 15 638 639 637  0  0
224  1  0 641 642 640 11  0
225  0 23 644 645 643  0  0
226  1  0 647 648 646 21  0
227  0  2 650 651 649  0  0
228  1  0 653 654 652 22  0
229  0 22 656 657 655  0  0
230  1  0 659 660 658 20  0
231  0 17 662 663 661  0  0
232  1  0 665 666 664 13  0
233  0 11 668 669 667  0  0
234  1  0 671 672 670  6  0
235  0 24 674 675 673  0  0
236  1  0 677 678 676 23  0
237  0  7 680 681 679  0  0
238  1  0 683 684 682  2  0
239  0 20 686 687 685  0  0
240  1  0 689 690 688 17  0
241  0 20 692 693 691  0  0
242  1  0 695 696 694 17  0
243  0  7 698 699 697  0  0
244  1  0 701 702 700  2  0
245  0 24 704 705 703  0  0
246  1  0 707 708 706 23  0
247  0 11 710 711 709  0  0
248  1  0 713 714 712  6  0
249  0 17 716 717 715  0  0
250  1  0 719 720 718 13  0
251  0 22 722 723 721  0  0
252  1  0 725 726 724 20  0
253  0  2 728 729 727  0  0
254  1  0 731 732 730 22  0
255  0 23 734 735 733  0  0
256  1  0 737 738 736 21  0
257  0 15 740 741 739  0  0
258  1  0 743 744 742 11  0
259  0 14 746 747 745  0  0
260  1  0 749 750 748  9  0
261  0 22 752 753 751  0  0
262  1  0 755 756 754 20  0
263  0  4 758 759 757  0  0
264  1  0 761 762 760 19  0
265  0 21 764 765 763  0  0
266  1  0 767 768 766 18  0
267  0 18 770 771 769  0  0
268  1  0 773 774 772 15  0
269  0 10 776 777 775  0  0
270  1  0 779 780 778  5  0
271  0 20 782 783 781  0  0
272  1  0 785 786 784 17  0
273  0  9 788 789 787  0  0
274  1  0 791 792 790  4  0
275  0 19 794 795 793  0  0
276  1  0 797 798 796 16  0
277  0 18 800 801 799  0  0
278  1  0 803 804 802 15  0
279  0  5 806 807 805  0  0
280  1  0 809 810 808 14  0
281  0 17 812 813 811  0  0
282  1  0 815 816 814 13  0
283  0 13 818 819 817  0  0
284  1  0 821 822 820  8  0
285  0 16 824 825 823  0  0
286  1  0 827 828 826 12  0
287  0 15 830 831 829  0  0
288  1  0 833 834 832 11  0
289  0  1 836 837 835  0  0
290  1  0 839 840 838 10  0
291  0 14 842 843 841  0  0
292  1  0 845 846 844  9  0
293  0 13 848 849 847  0  0
294  1  0 851 852 850  8  0
295  0 12 854 855 853  0  0
296  1  0 857 858 856  7  0
297  0 11 860 861 859  0  0
298  1  0 863 864 862  6  0
299  0  6 866 867 865  0  0
300  1  0 869 870 868  1  0
301  0 10 872 873 871  0  0
302  1  0 875 876 874  5  0
303  0  9 878 879 877  0  0
304  1  0 881 882 880  4  0
305  0  8 884 885 883  0  0
306  1  0 887 888 886  3  0
307  0  7 890 891 889  0  0
308  1  0 893 894 892  2  0
309  0  6 896 897 895  0  0
310  1  0 899 900 898  1  0
311  0  5 902 903 901  0  0
312  1  0 905 906 904 14  0
313  0  4 908 909 907  0  0
314  1  0 911 912 910 19  0
315  0  3 914 915 913  0  0
316  1  0 917 918 916 24  0
317  0  2 920 921 919  0  0
318  1  0 923 924 922 22  0
319  0  1 926 927 925  0  0
320  1  0 929 930 928 10  0
321  0  1 932 933 931  0  0
322  1  0 935 936 934 10  0
323  0  2 938 939 937  0  0
324  1  0 941 942 940 22  0
325  0  3 944 945 943  0  0
326  1  0 947 948 946 24  0
327  0  4 950 951 949  0  0
328  1  0 953 954 952 19  0
329  0  5 956 957 955  0  0
330  1  0 959 960 958 14  0
331  0  6 962 963 961  0  0
332  1  0 965 966 964  1  0
333  0  7 968 969 967  0  0
334  1  0 971 972 970  2  0
335  0  8 974 975 973  0  0
336  1  0 977 978 976  3  0
337  0  9 980 981 979  0  0
338  1  0 983 984 982  4  0
339  0 10 986 987 985  0  0
340  1  0 989 990 988  5  0
341  0  6 992 993 991  0  0
342  1  0 995 996 994  1  0
343  0 11 998 999 997  0  0
344  1  0 1001 1002 1000  6  0
345  0 12 1004 1005 1003  0  0
346  1  0 1007 1008 1006  7  0
347  0 13 1010 1011 1009  0  0
[RF]
1      85.1875 1 2 100 0 2.04204
2      85.1875 1 2 100 0 4.08407
3      85.1875 1 2 100 0 1.88496
4      85.1875 1 2 100 0 1.72788
5      85.1875 1 2 100 0 3.61283
6      85.1875 1 2 100 0 1.25664
7      85.1875 1 2 100 0 0.942478
8      85.1875 1 2 100 0 2.67035
9      85.1875 1 2 100 0 0.15708
10      85.1875 1 2 100 0 5.96903
11      85.1875 1 2 100 0 4.86947
12      85.1875 1 2 100 0 4.24115
13      85.1875 1 2 100 0 5.65487
14      85.1875 1 2 100 0 2.82743
15      85.1875 1 2 100 0 3.29867
16      85.1875 1 2 100 0 0.314159
17      85.1875 1 2 100 0 0.471239
18      85.1875 1 2 100 0 2.51327
19      85.1875 1 2 100 0 3.45575
20      85.1875 1 2 100 0 5.18363
21      85.1875 1 2 100 0 1.09956
22      85.1875 1 2 100 0 4.39823
23      85.1875 1 2 100 0 5.81195
24      85.1875 1 2 100 0 5.02655

# Format of arbitrary gradients:
# id amplitude shape_id delay
# ..      Hz/m     ....    us
[GRADIENTS]
1  1.40001e+06 3 90
7  1.38916e+06 4 90
13  1.34106e+06 5 90
19   1.3305e+06 6 90
25  1.31994e+06 7 90
31  1.27493e+06 8 90
37  1.26465e+06 9 90
43  1.25437e+06 10 90
49  1.21219e+06 11 90
55  1.20217e+06 12 90
61  1.19216e+06 13 90
67  1.18214e+06 14 90
73  1.14282e+06 15 90
79  1.13306e+06 16 90
85  1.12329e+06 17 90
91  1.11353e+06 18 90
97  1.07684e+06 19 90
103  1.06731e+06 20 90
109  1.05778e+06 21 90
115  1.04826e+06 22 90
121    1.014e+06 23 90
127   1.0047e+06 24 90
133       995396 25 90
139       986096 26 90
145       954079 27 90
151       944995 28 90
157       935910 29 90
163       926826 30 90
169       917742 31 90
175       888006 32 90
181       879128 33 90
187       870250 34 90
193       861373 35 90
199       852495 36 90
205       824870 37 90
211       816189 38 90
217       807509 39 90
223       798828 40 90
229       790148 41 90
235       764479 42 90
241       755987 43 90
247       747495 44 90
253       739003 45 90
259       730511 46 90
265       722019 47 90
271       698346 48 90
277       690035 49 90
283       681724 50 90
289       673413 51 90
295       665101 52 90
301       656790 53 90
307       634969 54 90
313       626831 55 90
319       618693 56 90
325       610555 57 90
331       602417 58 90
337       594279 59 90
343       574179 60 90
349       566207 61 90
355       558235 62 90
361       550263 63 90
367       542291 64 90
373       534319 65 90
379       526347 66 90
385       508008 67 90
391       500195 68 90
397       492383 69 90
403       484570 70 90
409       476758 71 90
415       468945 72 90
421       461133 73 90
427       444432 74 90
433       436772 75 90
439       429113 76 90
445       421454 77 90
451       413794 78 90
457       406135 79 90
463       398476 80 90
469       390816 81 90
475       375789 82 90
481       368277 83 90
487       360765 84 90
493       353253 85 90
499       345741 86 90
505       338229 87 90
511       330717 88 90
517       317106 89 90
523       309736 90 90
529       302366 91 90
535       294996 92 90
541       287625 93 90
547       280255 94 90
553       272885 95 90
559       265514 96 90
565       253364 97 90
571       246130 98 90
577       238896 99 90
583       231662 100 90
589       224429 101 90
595       217195 102 90
601       209961 103 90
607       202727 104 90
613       195493 105 90
619       184837 106 90
625       177734 107 90
631       170632 108 90
637       163530 109 90
643       156428 110 90
649       149325 111 90
655       142223 112 90
661       135121 113 90
667       125732 114 90
673       118757 115 90
679       111782 116 90
685       104806 117 90
691      97830.6 118 90
697      90855.2 119 90
703      83879.7 120 90
709      76904.3 121 90
715      69928.9 122 90
721        61849 123 90
727      54995.9 124 90
733      48142.8 125 90
739      41289.7 126 90
745      34436.7 127 90
751      27583.6 128 90
757      20730.5 129 90
763      19531.3 130 90
769      19531.3 131 90
775      19531.3 132 90
781      19531.3 133 90
787      19531.3 134 90
793      20387.9 135 90
799        27241 136 90
805        34094 137 90
811      40947.1 138 90
817      47800.2 139 90
823      54653.2 140 90
829      61506.3 141 90
835      69580.1 142 90
841      76555.5 143 90
847        83531 144 90
853      90506.4 145 90
859      97481.9 146 90
865       104457 147 90
871       111433 148 90
877       118408 149 90
883       125384 150 90
889       134766 151 90
895       141868 152 90
901       148970 153 90
907       156072 154 90
913       163175 155 90
919       170277 156 90
925       177379 157 90
931       184482 158 90
937       191584 159 90
943       202365 160 90
949       209599 161 90
955       216833 162 90
961       224067 163 90
967       231301 164 90
973       238534 165 90
979       245768 166 90
985       253002 167 90
991       265146 168 90
997       272516 169 90
1003       279886 170 90
1009       287257 171 90
1015       294627 172 90
1021       301997 173 90
1027       309368 174 90
1033       316738 175 90
1039       330341 176 90
1045       337853 177 90
1051       345365 178 90
1057       352877 179 90
1063       360389 180 90
1069       367901 181 90
1075       375413 182 90
1081       382925 183 90
1087       398093 184 90
1093       405752 185 90
1099       413411 186 90
1105       421071 187 90
1111       428730 188 90
1117       436389 189 90
1123       444049 190 90
1129       460742 191 90
1135       468555 192 90
1141       476367 193 90
1147       484180 194 90
1153       491992 195 90
1159       499805 196 90
1165       507617 197 90
1171       525949 198 90
1177       533921 199 90
1183       541893 200 90
1189       549864 201 90
1195       557836 202 90
1201       565808 203 90
1207       573780 204 90
1213       593872 205 90
1219       602010 206 90
1225       610148 207 90
1231       618286 208 90
1237       626424 209 90
1243       634562 210 90
1249       656375 211 90
1255       664686 212 90
1261       672997 213 90
1267       681308 214 90
1273       689619 215 90
1279       697931 216 90
1285       721595 217 90
1291       730087 218 90
1297       738578 219 90
1303       747070 220 90
1309       755562 221 90
1315       764054 222 90
1321       789714 223 90
1327       798394 224 90
1333       807075 225 90
1339       815755 226 90
1345       824436 227 90
1351       852051 228 90
1357       860929 229 90
1363       869806 230 90
1369       878684 231 90
1375       887562 232 90
1381       917287 233 90
1387       926372 234 90
1393       935456 235 90
1399       944540 236 90
1405       953625 237 90
1411       985631 238 90
1417       994931 239 90
1423  1.00423e+06 240 90
1429  1.01353e+06 241 90
1435  1.04778e+06 242 90
1441  1.05731e+06 243 90
1447  1.06683e+06 244 90
1453  1.07636e+06 245 90
1459  1.11304e+06 246 90
1465   1.1228e+06 247 90
1471  1.13257e+06 248 90
1477  1.14233e+06 249 90
1483  1.18164e+06 250 90
1489  1.19166e+06 251 90
1495  1.20167e+06 252 90
1501  1.21169e+06 253 90
1507  1.25385e+06 254 90
1513  1.26413e+06 255 90
1519  1.27441e+06 256 90
1525  1.31942e+06 257 90
1531  1.32997e+06 258 90

# Format of trapezoid gradients:
# id amplitude rise flat fall delay
# ..      Hz/m   us   us   us    us
[TRAP]
 2       758417 340    0 340 1260
 3 -1.95066e+06 340    0 340 1260
 4      -724638 120  570 120 1050
 5      -589803 260  790 260   0
 6  1.51698e+06 260  790 260   0
 8       773190 340    0 340 1260
 9 -1.94485e+06 340    0 340 1260
10      -730299 120  570 120 1050
11      -601291 260  790 260   0
12  1.51246e+06 260  790 260   0
14       764065 340    0 340 1260
15 -1.94845e+06 340    0 340 1260
16      -735960 120  570 120 1050
17      -594195 260  790 260   0
18  1.51526e+06 260  790 260   0
20       778821 340    0 340 1260
21  -1.9426e+06 340    0 340 1260
22      -741621 120  570 120 1050
23      -605670 260  790 260   0
24  1.51071e+06 260  790 260   0
26       769706 340    0 340 1260
27 -1.94623e+06 340    0 340 1260
28      -747283 120  570 120 1050
29      -598582 260  790 260   0
30  1.51354e+06 260  790 260   0
32       760575 340    0 340 1260
33 -1.94982e+06 340    0 340 1260
34      -752944 120  570 120 1050
35      -591481 260  790 260   0
36  1.51633e+06 260  790 260   0
38       775341 340    0 340 1260
39 -1.94399e+06 340    0 340 1260
40      -758605 120  570 120 1050
41      -602964 260  790 260   0
42   1.5118e+06 260  790 260   0
44       766221 340    0 340 1260
45 -1.94761e+06 340    0 340 1260
46      -764266 120  570 120 1050
47      -595871 260  790 260   0
48  1.51461e+06 260  790 260   0
50       780970 340    0 340 1260
51 -1.94174e+06 340    0 340 1260
52      -781250 130  550 130 1050
53      -607342 260  790 260   0
54  1.51004e+06 260  790 260   0
56       771860 340    0 340 1260
57 -1.94538e+06 340    0 340 1260
58      -786994 130  550 130 1050
59      -600257 260  790 260   0
60  1.51287e+06 260  790 260   0
62       762732 340    0 340 1260
63 -1.94897e+06 340    0 340 1260
64      -792739 130  550 130 1050
65      -593159 260  790 260   0
66  1.51567e+06 260  790 260   0
68       777492 340    0 340 1260
69 -1.94313e+06 340    0 340 1260
70      -798483 130  550 130 1050
71      -604637 260  790 260   0
72  1.51113e+06 260  790 260   0
74       768375 340    0 340 1260
75 -1.94676e+06 340    0 340 1260
76      -804228 130  550 130 1050
77      -597547 260  790 260   0
78  1.51395e+06 260  790 260   0
80       759242 340    0 340 1260
81 -1.95034e+06 340    0 340 1260
82      -809972 130  550 130 1050
83      -590444 260  790 260   0
84  1.51673e+06 260  790 260   0
86       774012 340    0 340 1260
87 -1.94452e+06 340    0 340 1260
88      -815717 130  550 130 1050
89      -601930 260  790 260   0
90  1.51221e+06 260  790 260   0
92       764888 340    0 340 1260
93 -1.94813e+06 340    0 340 1260
94      -821461 130  550 130 1050
95      -594835 260  790 260   0
96  1.51501e+06 260  790 260   0
98       779642 340    0 340 1260
99 -1.94227e+06 340    0 340 1260
100      -827206 130  550 130 1050
101      -606309 260  790 260   0
102  1.51046e+06 260  790 260   0
104       770529 340    0 340 1260
105 -1.94591e+06 340    0 340 1260
106      -845382 140  530 140 1050
107      -599222 260  790 260   0
108  1.51328e+06 260  790 260   0
110       761399 340    0 340 1260
111  -1.9495e+06 340    0 340 1260
112      -851213 140  530 140 1050
113      -592122 260  790 260   0
114  1.51608e+06 260  790 260   0
116       776163 340    0 340 1260
117 -1.94366e+06 340    0 340 1260
118      -857043 140  530 140 1050
119      -603603 260  790 260   0
120  1.51154e+06 260  790 260   0
122       767044 340    0 340 1260
123 -1.94728e+06 340    0 340 1260
124      -862873 140  530 140 1050
125      -596512 260  790 260   0
126  1.51435e+06 260  790 260   0
128       781790 340    0 340 1260
129 -1.94141e+06 340    0 340 1260
130      -868703 140  530 140 1050
131      -607980 260  790 260   0
132  1.50979e+06 260  790 260   0
134       772682 340    0 340 1260
135 -1.94505e+06 340    0 340 1260
136      -874534 140  530 140 1050
137      -600896 260  790 260   0
138  1.51262e+06 260  790 260   0
140       763556 340    0 340 1260
141 -1.94865e+06 340    0 340 1260
142      -880364 140  530 140 1050
143      -593799 260  790 260   0
144  1.51542e+06 260  790 260   0
146       778313 340    0 340 1260
147  -1.9428e+06 340    0 340 1260
148      -886194 140  530 140 1050
149      -605276 260  790 260   0
150  1.51087e+06 260  790 260   0
152       769198 340    0 340 1260
153 -1.94643e+06 340    0 340 1260
154      -892024 140  530 140 1050
155      -598187 260  790 260   0
156  1.51369e+06 260  790 260   0
158       760066 340    0 340 1260
159 -1.95002e+06 340    0 340 1260
160      -911458 150  510 150 1050
161      -591085 260  790 260   0
162  1.51648e+06 260  790 260   0
164       774834 340    0 340 1260
165  -1.9442e+06 340    0 340 1260
166      -917377 150  510 150 1050
167      -602570 260  790 260   0
168  1.51195e+06 260  790 260   0
170       765712 340    0 340 1260
171 -1.94781e+06 340    0 340 1260
172      -923295 150  510 150 1050
173      -595476 260  790 260   0
174  1.51476e+06 260  790 260   0
176       780463 340    0 340 1260
177 -1.94194e+06 340    0 340 1260
178      -929214 150  510 150 1050
179      -606947 260  790 260   0
180   1.5102e+06 260  790 260   0
182       771351 340    0 340 1260
183 -1.94558e+06 340    0 340 1260
184      -935133 150  510 150 1050
185      -599862 260  790 260   0
186  1.51303e+06 260  790 260   0
188       762223 340    0 340 1260
189 -1.94917e+06 340    0 340 1260
190      -941051 150  510 150 1050
191      -592763 260  790 260   0
192  1.51583e+06 260  790 260   0
194       776984 340    0 340 1260
195 -1.94334e+06 340    0 340 1260
196      -946970 150  510 150 1050
197      -604242 260  790 260   0
198  1.51129e+06 260  790 260   0
200       767867 340    0 340 1260
201 -1.94696e+06 340    0 340 1260
202      -952888 150  510 150 1050
203      -597152 260  790 260   0
204   1.5141e+06 260  790 260   0
206       758732 340    0 340 1260
207 -1.95054e+06 340    0 340 1260
208      -973558 160  490 160 1050
209      -590048 260  790 260   0
210  1.51688e+06 260  790 260   0
212       773504 340    0 340 1260
213 -1.94472e+06 340    0 340 1260
214      -979567 160  490 160 1050
215      -601535 260  790 260   0
216  1.51237e+06 260  790 260   0
218       764380 340    0 340 1260
219 -1.94833e+06 340    0 340 1260
220      -985577 160  490 160 1050
221      -594440 260  790 260   0
222  1.51517e+06 260  790 260   0
224       779134 340    0 340 1260
225 -1.94248e+06 340    0 340 1260
226      -991587 160  490 160 1050
227      -605914 260  790 260   0
228  1.51062e+06 260  790 260   0
230       770021 340    0 340 1260
231 -1.94611e+06 340    0 340 1260
232      -997596 160  490 160 1050
233      -598827 260  790 260   0
234  1.51344e+06 260  790 260   0
236       760890 340    0 340 1260
237 -1.94969e+06 340    0 340 1260
238 -1.00361e+06 160  490 160 1050
239      -591726 260  790 260   0
240  1.51623e+06 260  790 260   0
242       775655 340    0 340 1260
243 -1.94387e+06 340    0 340 1260
244 -1.00962e+06 160  490 160 1050
245      -603209 260  790 260   0
246   1.5117e+06 260  790 260   0
248       766535 340    0 340 1260
249 -1.94748e+06 340    0 340 1260
250 -1.01562e+06 160  490 160 1050
251      -596116 260  790 260   0
252  1.51451e+06 260  790 260   0
254       781283 340    0 340 1260
255 -1.94161e+06 340    0 340 1260
256 -1.02163e+06 160  490 160 1050
257      -607585 260  790 260   0
258  1.50995e+06 260  790 260   0
260       772174 340    0 340 1260
261 -1.94525e+06 340    0 340 1260
262  -1.0437e+06 170  470 170 1050
263      -600501 260  790 260   0
264  1.51278e+06 260  790 260   0
266       763047 340    0 340 1260
267 -1.94885e+06 340    0 340 1260
268  -1.0498e+06 170  470 170 1050
269      -593403 260  790 260   0
270  1.51558e+06 260  790 260   0
272       777806 340    0 340 1260
273 -1.94301e+06 340    0 340 1260
274 -1.05591e+06 170  470 170 1050
275      -604881 260  790 260   0
276  1.51103e+06 260  790 260   0
278       768689 340    0 340 1260
279 -1.94663e+06 340    0 340 1260
280 -1.06201e+06 170  470 170 1050
281      -597791 260  790 260   0
282  1.51385e+06 260  790 260   0
284       759556 340    0 340 1260
285 -1.95021e+06 340    0 340 1260
286 -1.06812e+06 170  470 170 1050
287      -590689 260  790 260   0
288  1.51664e+06 260  790 260   0
290       774326 340    0 340 1260
291  -1.9444e+06 340    0 340 1260
292 -1.07422e+06 170  470 170 1050
293      -602175 260  790 260   0
294  1.51211e+06 260  790 260   0
296       765203 340    0 340 1260
297 -1.94801e+06 340    0 340 1260
298 -1.08032e+06 170  470 170 1050
299      -595080 260  790 260   0
300  1.51492e+06 260  790 260   0
302       779955 340    0 340 1260
303 -1.94215e+06 340    0 340 1260
304 -1.10367e+06 180  450 180 1050
305      -606553 260  790 260   0
306  1.51036e+06 260  790 260   0
308       770843 340    0 340 1260
309 -1.94578e+06 340    0 340 1260
310 -1.10987e+06 180  450 180 1050
311      -599466 260  790 260   0
312  1.51319e+06 260  790 260   0
314       761714 340    0 340 1260
315 -1.94937e+06 340    0 340 1260
316 -1.11607e+06 180  450 180 1050
317      -592367 260  790 260   0
318  1.51598e+06 260  790 260   0
320       776477 340    0 340 1260
321 -1.94354e+06 340    0 340 1260
322 -1.12227e+06 180  450 180 1050
323      -603847 260  790 260   0
324  1.51144e+06 260  790 260   0
326       767358 340    0 340 1260
327 -1.94716e+06 340    0 340 1260
328 -1.12847e+06 180  450 180 1050
329      -596756 260  790 260   0
330  1.51426e+06 260  790 260   0
332       782104 340    0 340 1260
333 -1.94128e+06 340    0 340 1260
334 -1.13467e+06 180  450 180 1050
335      -608224 260  790 260   0
336  1.50969e+06 260  790 260   0
338       772996 340    0 340 1260
339 -1.94493e+06 340    0 340 1260
340 -1.14087e+06 180  450 180 1050
341      -601140 260  790 260   0
342  1.51252e+06 260  790 260   0
344       763871 340    0 340 1260
345 -1.94853e+06 340    0 340 1260
346 -1.14707e+06 180  450 180 1050
347      -594044 260  790 260   0
348  1.51532e+06 260  790 260   0
350       778627 340    0 340 1260
351 -1.94268e+06 340    0 340 1260
352 -1.17187e+06 190  430 190 1050
353      -605520 260  790 260   0
354  1.51078e+06 260  790 260   0
356       769512 340    0 340 1260
357 -1.94631e+06 340    0 340 1260
358 -1.17818e+06 190  430 190 1050
359      -598431 260  790 260   0
360   1.5136e+06 260  790 260   0
362       760381 340    0 340 1260
363 -1.94989e+06 340    0 340 1260
364 -1.18448e+06 190  430 190 1050
365      -591330 260  790 260   0
366  1.51639e+06 260  790 260   0
368       775147 340    0 340 1260
369 -1.94407e+06 340    0 340 1260
370 -1.19078e+06 190  430 190 1050
371      -602814 260  790 260   0
372  1.51186e+06 260  790 260   0
374       766026 340    0 340 1260
375 -1.94768e+06 340    0 340 1260
376 -1.19708e+06 190  430 190 1050
377      -595720 260  790 260   0
378  1.51467e+06 260  790 260   0
380       780776 340    0 340 1260
381 -1.94182e+06 340    0 340 1260
382 -1.20338e+06 190  430 190 1050
383      -607191 260  790 260   0
384   1.5101e+06 260  790 260   0
386       771665 340    0 340 1260
387 -1.94545e+06 340    0 340 1260
388 -1.20968e+06 190  430 190 1050
389      -600106 260  790 260   0
390  1.51293e+06 260  790 260   0
392       762538 340    0 340 1260
393 -1.94905e+06 340    0 340 1260
394 -1.23591e+06 200  410 200 1050
395      -593007 260  790 260   0
396  1.51573e+06 260  790 260   0
398       777298 340    0 340 1260
399 -1.94321e+06 340    0 340 1260
400 -1.24232e+06 200  410 200 1050
401      -604486 260  790 260   0
402  1.51119e+06 260  790 260   0
404       768181 340    0 340 1260
405 -1.94683e+06 340    0 340 1260
406 -1.24872e+06 200  410 200 1050
407      -597396 260  790 260   0
408  1.51401e+06 260  790 260   0
410       759047 340    0 340 1260
411 -1.95041e+06 340    0 340 1260
412 -1.25512e+06 200  410 200 1050
413      -590293 260  790 260   0
414  1.51679e+06 260  790 260   0
416       773818 340    0 340 1260
417  -1.9446e+06 340    0 340 1260
418 -1.26153e+06 200  410 200 1050
419      -601780 260  790 260   0
420  1.51227e+06 260  790 260   0
422       764694 340    0 340 1260
423 -1.94821e+06 340    0 340 1260
424 -1.26793e+06 200  410 200 1050
425      -594684 260  790 260   0
426  1.51507e+06 260  790 260   0
428       779448 340    0 340 1260
429 -1.94235e+06 340    0 340 1260
430 -1.27433e+06 200  410 200 1050
431      -606158 260  790 260   0
432  1.51052e+06 260  790 260   0
434       770335 340    0 340 1260
435 -1.94598e+06 340    0 340 1260
436 -1.30208e+06 210  390 210 1050
437      -599071 260  790 260   0
438  1.51334e+06 260  790 260   0
440       761205 340    0 340 1260
441 -1.94957e+06 340    0 340 1260
442 -1.30859e+06 210  390 210 1050
443      -591971 260  790 260   0
444  1.51614e+06 260  790 260   0
446       775969 340    0 340 1260
447 -1.94374e+06 340    0 340 1260
448  -1.3151e+06 210  390 210 1050
