# Pulseq sequence file
# Created by MATLAB mr toolbox

[VERSION]
major 1
minor 3
revision 1

[DEFINITIONS]
FOV 0.256 0.256 0.256 
Name 3D_radial_stackOfStars 
TotalDuration 0.29648 

# Format of blocks:
#  #  D RF  GX  GY  GZ ADC EXT
[BLOCKS]
  1  0  1   2   0   1  0  0
  2  1  0   4   0   3  0  0
  3  0  2   5   6   1  0  0
  4  1  0   7   8   3  0  0
  5  0  3   9  10   1  0  0
  6  1  0  11  12   3  0  0
  7  0  4  13  14   1  0  0
  8  1  0  15  16   3  0  0
  9  0  5  17  18   1  0  0
 10  1  0  19  20   3  0  0
 11  0  6   2   0   1  0  0
 12  1  0   4   0   3  1  0
 13  0  7   5   6   1  0  0
 14  1  0   7   8   3  2  0
 15  0  8   9  10   1  0  0
 16  1  0  11  12   3  3  0
 17  0  9  13  14   1  0  0
 18  1  0  15  16   3  4  0
 19  0 10  17  18   1  0  0
 20  1  0  19  20   3  5  0
 21  0  6  21  22   1  0  0
 22  1  0  23  24   3  1  0
 23  0 11  25  26   1  0  0
 24  1  0  27  28   3  6  0
 25  0 12  29  30   1  0  0
 26  1  0  31  32   3  7  0
 27  0 13  33  34   1  0  0
 28  1  0  35  36   3  8  0
 29  0 14  37  38   1  0  0
 30  1  0  39  40   3  9  0
 31  0  1  41  42   1  0  0
 32  1  0  43  44   3 10  0
 33  0 15  45  46   1  0  0
 34  1  0  47  48   3 11  0
 35  0 16  49  50   1  0  0
 36  1  0  51  52   3 12  0
 37  0 13  53  54   1  0  0
 38  1  0  55  56   3  8  0
 39  0 17  57  58   1  0  0
 40  1  0  59  60   3 13  0
 41  0  5  61  62   1  0  0
 42  1  0  63  64   3 14  0
 43  0 18  65  66   1  0  0
 44  1  0  67  68   3 15  0
 45  0 19  69  70   1  0  0
 46  1  0  71  72   3 16  0
 47  0  9  73  74   1  0  0
 48  1  0  75  76   3  4  0
 49  0 20  77  78   1  0  0
 50  1  0  79  80   3 17  0
 51  0 10  81  82   1  0  0
 52  1  0  83  84   3  5  0
 53  0 18   2  86  85  0  0
 54  1  0   4  88  87 15  0
 55  0 21  89  90  85  0  0
 56  1  0  91  92  87 18  0
 57  0  4  93  94  85  0  0
 58  1  0  95  96  87 19  0
 59  0 22  97  98  85  0  0
 60  1  0  99 100  87 20  0
 61  0 14 101 102  85  0  0
 62  1  0 103 104  87  9  0
 63  0 15 105 106  85  0  0
 64  1  0 107 108  87 11  0
 65  0 23 109 110  85  0  0
 66  1  0 111 112  87 21  0
 67  0  2 113 114  85  0  0
 68  1  0 115 116  87 22  0
 69  0 22 117 118  85  0  0
 70  1  0 119 120  87 20  0
 71  0 17 121 122  85  0  0
 72  1  0 123 124  87 13  0
 73  0 11 125 126  85  0  0
 74  1  0 127 128  87  6  0
 75  0 24 129 130  85  0  0
 76  1  0 131 132  87 23  0
 77  0  7 133 134  85  0  0
 78  1  0 135 136  87  2  0
 79  0 20 137 138  85  0  0
 80  1  0 139 140  87 17  0
 81  0 20 141 142  85  0  0
 82  1  0 143 144  87 17  0
 83  0  7 145 146  85  0  0
 84  1  0 147 148  87  2  0
 85  0 24 149 150  85  0  0
 86  1  0 151 152  87 23  0
 87  0 11 153 154  85  0  0
 88  1  0 155 156  87  6  0
 89  0 17 157 158  85  0  0
 90  1  0 159 160  87 13  0
 91  0 22 161 162  85  0  0
 92  1  0 163 164  87 20  0
 93  0  2 165 166  85  0  0
 94  1  0 167 168  87 22  0
 95  0 23 170 171 169  0  0
 96  1  0 173 174 172 21  0
 97  0 15 175 176 169  0  0
 98  1  0 177 178 172 11  0
 99  0 14 179 180 169  0  0
100  1  0 181 182 172  9  0
101  0 22 183 184 169  0  0
102  1  0 185 186 172 20  0
103  0  4 187 188 169  0  0
104  1  0 189 190 172 19  0
105  0 21 191 192 169  0  0
106  1  0 193 194 172 18  0
107  0 18 195 196 169  0  0
108  1  0 197 198 172 15  0
109  0 10 199 200 169  0  0
110  1  0 201 202 172  5  0
111  0 20 203 204 169  0  0
112  1  0 205 206 172 17  0
113  0  9 207 208 169  0  0
114  1  0 209 210 172  4  0
115  0 19 211 212 169  0  0
116  1  0 213 214 172 16  0
117  0 18 215 216 169  0  0
118  1  0 217 218 172 15  0
119  0  5 219 220 169  0  0
120  1  0 221 222 172 14  0
121  0 17 223 224 169  0  0
122  1  0 225 226 172 13  0
123  0 13 227 228 169  0  0
124  1  0 229 230 172  8  0
125  0 16 231 232 169  0  0
126  1  0 233 234 172 12  0
127  0 15 235 236 169  0  0
128  1  0 237 238 172 11  0
129  0  1 239 240 169  0  0
130  1  0 241 242 172 10  0
131  0 14 243 244 169  0  0
132  1  0 245 246 172  9  0
133  0 13 247 248 169  0  0
134  1  0 249 250 172  8  0
135  0 12 251 252 169  0  0
136  1  0 253 254 172  7  0

# Format of RF events:
# id amplitude mag_id phase_id delay freq phase
# ..        Hz   ....     ....    us   Hz   rad
[RF]
1      85.1875 1 2 100 0 2.04204
2      85.1875 1 2 100 0 4.08407
3      85.1875 1 2 100 0 1.88496
4      85.1875 1 2 100 0 1.72788
5      85.1875 1 2 100 0 3.61283
6      85.1875 1 2 100 0 1.25664
7      85.1875 1 2 100 0 0.942478
8      85.1875 1 2 100 0 2.67035
9      85.1875 1 2 100 0 0.15708
10      85.1875 1 2 100 0 5.96903
11      85.1875 1 2 100 0 4.86947
12      85.1875 1 2 100 0 4.24115
13      85.1875 1 2 100 0 5.65487
14      85.1875 1 2 100 0 2.82743
15      85.1875 1 2 100 0 3.29867
16      85.1875 1 2 100 0 0.314159
17      85.1875 1 2 100 0 0.471239
18      85.1875 1 2 100 0 2.51327
19      85.1875 1 2 100 0 3.45575
20      85.1875 1 2 100 0 5.18363
21      85.1875 1 2 100 0 1.09956
22      85.1875 1 2 100 0 4.39823
23      85.1875 1 2 100 0 5.81195
24      85.1875 1 2 100 0 5.02655

# Format of arbitrary gradients:
# id amplitude shape_id delay
# ..      Hz/m     ....    us
[GRADIENTS]
1  1.40001e+06 3 90
85      19531.3 4 90
169  1.32997e+06 5 90

# Format of trapezoid gradients:
# id amplitude rise flat fall delay
# ..      Hz/m   us   us   us    us
[TRAP]
 2 -2.09578e+06 340    0 340 1260
 3      -724638 120  570 120 1050
 4   1.6276e+06 260  790 260   0
 5       759458 340    0 340 1260
 6 -1.95333e+06 340    0 340 1260
 7      -589803 260  790 260   0
 8  1.51698e+06 260  790 260   0
 9  1.54536e+06 340    0 340 1260
10  1.41568e+06 340    0 340 1260
11 -1.20014e+06 260  790 260   0
12 -1.09943e+06 260  790 260   0
13 -1.87946e+06 340    0 340 1260
14       927322 340    0 340 1260
15  1.45961e+06 260  790 260   0
16      -720168 260  790 260   0
17      -183225 340    0 340 1260
18 -2.08776e+06 340    0 340 1260
19       142294 260  790 260   0
20  1.62137e+06 260  790 260   0
21  2.01225e+06 340    0 340 1260
22       585778 340    0 340 1260
23 -1.56274e+06 260  790 260   0
24      -454921 260  790 260   0
25 -1.27515e+06 340    0 340 1260
26  1.66321e+06 340    0 340 1260
27       990298 260  790 260   0
28 -1.29167e+06 260  790 260   0
29 -1.08808e+06 340    0 340 1260
30 -1.79119e+06 340    0 340 1260
31       845017 260  790 260   0
32  1.39106e+06 260  790 260   0
33  2.06374e+06 340    0 340 1260
34      -365047 340    0 340 1260
35 -1.60272e+06 260  790 260   0
36       283499 260  790 260   0
37      -407613 340    0 340 1260
38  2.05576e+06 340    0 340 1260
39       316556 260  790 260   0
40 -1.59652e+06 260  790 260   0
41 -1.76833e+06 340    0 340 1260
42 -1.12486e+06 340    0 340 1260
43   1.3733e+06 260  790 260   0
44       873581 260  790 260   0
45  1.68921e+06 340    0 340 1260
46 -1.24051e+06 340    0 340 1260
47 -1.31185e+06 260  790 260   0
48       963396 260  790 260   0
49       544073 340    0 340 1260
50  2.02393e+06 340    0 340 1260
51      -422533 260  790 260   0
52  -1.5718e+06 260  790 260   0
53 -2.08352e+06 340    0 340 1260
54      -226326 340    0 340 1260
55  1.61809e+06 260  790 260   0
56       175767 260  790 260   0
57       965960 340    0 340 1260
58  -1.8599e+06 340    0 340 1260
59      -750174 260  790 260   0
60  1.44441e+06 260  790 260   0
61  1.38344e+06 340    0 340 1260
62  1.57429e+06 340    0 340 1260
63  -1.0744e+06 260  790 260   0
64 -1.22261e+06 260  790 260   0
65 -1.96861e+06 340    0 340 1260
66       718933 340    0 340 1260
67  1.52884e+06 260  790 260   0
68      -558331 260  790 260   0
69      43305.8 340    0 340 1260
70 -2.09533e+06 340    0 340 1260
71     -33631.7 260  790 260   0
72  1.62726e+06 260  790 260   0
73  1.93722e+06 340    0 340 1260
74       799658 340    0 340 1260
75 -1.50447e+06 260  790 260   0
76      -621023 260  790 260   0
77 -1.44731e+06 340    0 340 1260
78  1.51578e+06 340    0 340 1260
79    1.124e+06 260  790 260   0
80 -1.17717e+06 260  790 260   0
81      -888288 340    0 340 1260
82 -1.89822e+06 340    0 340 1260
83       689854 260  790 260   0
84  1.47418e+06 260  790 260   0
86     -2786.68 340    0 340 1260
87  2.04082e+06 320  170 320 1050
88      2164.16 260  790 260   0
89       762055 340    0 340 1260
90 -1.95232e+06 340    0 340 1260
91      -591819 260  790 260   0
92  1.51619e+06 260  790 260   0
93  1.54348e+06 340    0 340 1260
94  1.41773e+06 340    0 340 1260
95 -1.19868e+06 260  790 260   0
96 -1.10103e+06 260  790 260   0
97 -1.88069e+06 340    0 340 1260
98       924822 340    0 340 1260
99  1.46056e+06 260  790 260   0
100      -718226 260  790 260   0
101      -180449 340    0 340 1260
102   -2.088e+06 340    0 340 1260
103       140138 260  790 260   0
104  1.62156e+06 260  790 260   0
105  2.01147e+06 340    0 340 1260
106       588453 340    0 340 1260
107 -1.56213e+06 260  790 260   0
108      -456999 260  790 260   0
109 -1.27736e+06 340    0 340 1260
110  1.66152e+06 340    0 340 1260
111       992014 260  790 260   0
112 -1.29035e+06 260  790 260   0
113  -1.0857e+06 340    0 340 1260
114 -1.79264e+06 340    0 340 1260
115       843167 260  790 260   0
116  1.39218e+06 260  790 260   0
117  2.06423e+06 340    0 340 1260
118      -362303 340    0 340 1260
119  -1.6031e+06 260  790 260   0
120       281368 260  790 260   0
121      -410346 340    0 340 1260
122  2.05522e+06 340    0 340 1260
123       318679 260  790 260   0
124  -1.5961e+06 260  790 260   0
125 -1.76683e+06 340    0 340 1260
126 -1.12721e+06 340    0 340 1260
127  1.37214e+06 260  790 260   0
128       875406 260  790 260   0
129  1.69085e+06 340    0 340 1260
130 -1.23827e+06 340    0 340 1260
131 -1.31313e+06 260  790 260   0
132       961651 260  790 260   0
133       541382 340    0 340 1260
134  2.02465e+06 340    0 340 1260
135      -420443 260  790 260   0
136 -1.57236e+06 260  790 260   0
137 -2.08322e+06 340    0 340 1260
138      -229096 340    0 340 1260
139  1.61785e+06 260  790 260   0
140       177918 260  790 260   0
141       968432 340    0 340 1260
142 -1.85861e+06 340    0 340 1260
143      -752094 260  790 260   0
144  1.44342e+06 260  790 260   0
145  1.38135e+06 340    0 340 1260
146  1.57612e+06 340    0 340 1260
147 -1.07277e+06 260  790 260   0
148 -1.22403e+06 260  790 260   0
149 -1.96956e+06 340    0 340 1260
150       716315 340    0 340 1260
151  1.52958e+06 260  790 260   0
152      -556298 260  790 260   0
153      46091.8 340    0 340 1260
154 -2.09527e+06 340    0 340 1260
155     -35795.4 260  790 260   0
156  1.62721e+06 260  790 260   0
157  1.93616e+06 340    0 340 1260
158       802233 340    0 340 1260
159 -1.50364e+06 260  790 260   0
160      -623023 260  790 260   0
161 -1.44932e+06 340    0 340 1260
162  1.51385e+06 340    0 340 1260
163  1.12556e+06 260  790 260   0
164 -1.17567e+06 260  790 260   0
165      -885763 340    0 340 1260
166  -1.8994e+06 340    0 340 1260
167       687893 260  790 260   0
168  1.47509e+06 260  790 260   0
170 -2.09572e+06 340    0 340 1260
171       -15397 340    0 340 1260
172       730299 120  570 120 1050
173  1.62756e+06 260  790 260   0
174      11957.5 260  790 260   0
175       773788 340    0 340 1260
176  -1.9477e+06 340    0 340 1260
177      -600932 260  790 260   0
178  1.51261e+06 260  790 260   0
179  1.53492e+06 340    0 340 1260
180  1.42699e+06 340    0 340 1260
181 -1.19204e+06 260  790 260   0
182 -1.10822e+06 260  790 260   0
183 -1.88622e+06 340    0 340 1260
184       913489 340    0 340 1260
185  1.46486e+06 260  790 260   0
186      -709425 260  790 260   0
187      -167882 340    0 340 1260
188 -2.08904e+06 340    0 340 1260
189       130379 260  790 260   0
190  1.62237e+06 260  790 260   0
191  2.00789e+06 340    0 340 1260
192       600546 340    0 340 1260
193 -1.55935e+06 260  790 260   0
194      -466390 260  790 260   0
195 -1.28734e+06 340    0 340 1260
196   1.6538e+06 340    0 340 1260
197       999760 260  790 260   0
198 -1.28436e+06 260  790 260   0
199  -1.0749e+06 340    0 340 1260
200 -1.79914e+06 340    0 340 1260
201       834775 260  790 260   0
202  1.39723e+06 260  790 260   0
203  2.06637e+06 340    0 340 1260
204      -349875 340    0 340 1260
205 -1.60476e+06 260  790 260   0
206       271717 260  790 260   0
207      -422705 340    0 340 1260
208  2.05271e+06 340    0 340 1260
209       328277 260  790 260   0
210 -1.59415e+06 260  790 260   0
211 -1.76001e+06 340    0 340 1260
212 -1.13782e+06 340    0 340 1260
213  1.36684e+06 260  790 260   0
214       883646 260  790 260   0
215  1.69827e+06 340    0 340 1260
216 -1.22807e+06 340    0 340 1260
217  -1.3189e+06 260  790 260   0
218       953732 260  790 260   0
219       529190 340    0 340 1260
220  2.02787e+06 340    0 340 1260
221      -410974 260  790 260   0
222 -1.57486e+06 260  790 260   0
223  -2.0818e+06 340    0 340 1260
224      -241627 340    0 340 1260
225  1.61675e+06 260  790 260   0
226       187650 260  790 260   0
227       979598 340    0 340 1260
228 -1.85275e+06 340    0 340 1260
229      -760766 260  790 260   0
230  1.43886e+06 260  790 260   0
231  1.37184e+06 340    0 340 1260
232  1.58441e+06 340    0 340 1260
233 -1.06539e+06 260  790 260   0
234 -1.23047e+06 260  790 260   0
235 -1.97384e+06 340    0 340 1260
236       704451 340    0 340 1260
237   1.5329e+06 260  790 260   0
238      -547084 260  790 260   0
239      58698.4 340    0 340 1260
240 -2.09496e+06 340    0 340 1260
241     -45585.7 260  790 260   0
242  1.62697e+06 260  790 260   0
243   1.9313e+06 340    0 340 1260
244       813869 340    0 340 1260
245 -1.49987e+06 260  790 260   0
246      -632059 260  790 260   0
247 -1.45841e+06 340    0 340 1260
248  1.50511e+06 340    0 340 1260
249  1.13261e+06 260  790 260   0
250 -1.16888e+06 260  790 260   0
251      -874318 340    0 340 1260
252 -1.90469e+06 340    0 340 1260
253       679005 260  790 260   0
254  1.47921e+06 260  790 260   0

# Format of ADC events:
# id num dwell delay freq phase
# ..  ..    ns    us   Hz   rad
[ADC]
1 512 1200 260 0 1.25664
2 512 1200 260 0 0.942478
3 512 1200 260 0 2.67035
4 512 1200 260 0 0.15708
5 512 1200 260 0 5.96903
6 512 1200 260 0 4.86947
7 512 1200 260 0 4.24115
8 512 1200 260 0 5.65487
9 512 1200 260 0 2.82743
10 512 1200 260 0 2.04204
11 512 1200 260 0 3.29867
12 512 1200 260 0 0.314159
13 512 1200 260 0 0.471239
14 512 1200 260 0 3.61283
15 512 1200 260 0 2.51327
16 512 1200 260 0 3.45575
17 512 1200 260 0 5.18363
18 512 1200 260 0 1.09956
19 512 1200 260 0 1.72788
20 512 1200 260 0 4.39823
21 512 1200 260 0 5.81195
22 512 1200 260 0 4.08407
23 512 1200 260 0 5.02655

# Format of delays:
# id delay (us)
[DELAYS]
1 2420

# Sequence Shapes
[SHAPES]

shape_id 1
num_samples 420
3e-07
2.2e-06
5.9e-06
1.17e-05
1.94e-05
2.9e-05
4.08e-05
5.45e-05
7.05e-05
8.84e-05
0.0001085
0.0001308
0.0001552
0.0001819
0.0002107
0.0002418
0.0002751
0.0003107
0.0003486
0.0003886
0.0004309
0.0004757
0.0005225
0.0005717
0.0006231
0.0006769
0.0007328
0.0007911
0.0008515
0.0009143
0.0009791
0.0010463
0.0011155
0.001187
0.0012606
0.0013362
0.001414
0.0014938
0.0015757
0.0016595
0.0017453
0.001833
0.0019226
0.002014
0.0021073
0.0022022
0.002299
0.0023972
0.0024973
0.0025987
0.0027018
0.0028063
0.0029121
0.0030193
0.0031278
0.0032375
0.0033484
0.0034603
0.0035733
0.0036872
0.003802
0.0039176
0.0040341
0.004151
0.0042687
0.0043869
0.0045055
0.0046245
0.0047438
0.0048634
0.004983
0.0051027
0.0052224
0.005342
0.0054614
0.0055805
0.0056993
0.0058177
0.0059355
0.0060527
0.0061693
0.006285
0.0064
0.0065139
0.0066269
0.0067386
0.0068493
0.0069586
0.0070666
0.0071731
0.0072781
0.0073815
0.0074831
0.007583
0.0076809
0.007777
0.0078711
0.007963
0.0080526
0.0081402
0.0082252
0.008308
0.0083882
0.0084658
0.0085408
0.008613
0.0086826
0.0087493
0.0088129
0.0088738
0.0089315
0.008986
0.0090375
0.0090858
0.0091306
0.0091723
0.0092104
0.0092452
0.0092765
0.0093042
0.0093284
0.0093488
0.0093657
0.0093788
0.0093882
0.0093937
0.0093956
0.0093935
0.0093876
0.0093777
0.0093639
0.0093463
0.0093246
0.009299
0.0092693
0.0092357
0.009198
0.0091564
0.0091107
0.009061
0.0090073
0.0089495
0.0088878
0.008822
0.0087523
0.0086786
0.0086008
0.0085193
0.0084337
0.0083443
0.008251
0.0081539
0.0080529
0.0079483
0.0078397
0.0077276
0.0076118
0.0074924
0.0073695
0.0072429
0.007113
0.0069796
0.0068428
0.0067029
0.0065596
0.0064131
0.0062635
0.006111
0.0059554
0.0057968
0.0056356
0.0054714
0.0053046
0.0051352
0.0049633
0.004789
0.0046121
0.0044331
0.0042519
0.0040686
0.0038831
0.0036959
0.0035067
0.0033159
0.0031232
0.0029292
0.0027336
0.0025366
0.0023385
0.002139
0.0019386
0.0017371
0.0015348
0.0013318
0.001128
0.0009237
0.0007189
0.0005137
0.0003084
0.0001028
-0.0001028
-0.0003084
-0.0005137
-0.0007189
-0.0009237
-0.001128
-0.0013318
-0.0015348
-0.0017371
-0.0019386
-0.002139
-0.0023385
-0.0025366
-0.0027336
-0.0029292
-0.0031232
-0.0033159
-0.0035067
-0.0036959
-0.0038831
-0.0040686
-0.0042519
-0.0044331
-0.0046121
-0.004789
-0.0049633
-0.0051352
-0.0053046
-0.0054714
-0.0056356
-0.0057968
-0.0059554
-0.006111
-0.0062635
-0.0064131
-0.0065596
-0.0067029
-0.0068428
-0.0069796
-0.007113
-0.0072429
-0.0073695
-0.0074924
-0.0076118
-0.0077276
-0.0078397
-0.0079483
-0.0080529
-0.0081539
-0.008251
-0.0083443
-0.0084337
-0.0085193
-0.0086008
-0.0086786
-0.0087523
-0.008822
-0.0088878
-0.0089495
-0.0090073
-0.009061
-0.0091107
-0.0091564
-0.009198
-0.0092357
-0.0092693
-0.009299
-0.0093246
-0.0093463
-0.0093639
-0.0093777
-0.0093876
-0.0093935
-0.0093956
-0.0093937
-0.0093882
-0.0093788
-0.0093657
-0.0093488
-0.0093284
-0.0093042
-0.0092765
-0.0092452
-0.0092104
-0.0091723
-0.0091306
-0.0090858
-0.0090375
-0.008986
-0.0089315
-0.0088738
-0.0088129
-0.0087493
-0.0086826
-0.008613
-0.0085408
-0.0084658
-0.0083882
-0.008308
-0.0082252
-0.0081402
-0.0080526
-0.007963
-0.0078711
-0.007777
-0.0076809
-0.007583
-0.0074831
-0.0073815
-0.0072781
-0.0071731
-0.0070666
-0.0069586
-0.0068493
-0.0067386
-0.0066269
-0.0065139
-0.0064
-0.006285
-0.0061693
-0.0060527
-0.0059355
-0.0058177
-0.0056993
-0.0055805
-0.0054614
-0.005342
-0.0052224
-0.0051027
-0.004983
-0.0048634
-0.0047438
-0.0046245
-0.0045055
-0.0043869
-0.0042687
-0.004151
-0.0040341
-0.0039176
-0.003802
-0.0036872
-0.0035733
-0.0034603
-0.0033484
-0.0032375
-0.0031278
-0.0030193
-0.0029121
-0.0028063
-0.0027018
-0.0025987
-0.0024973
-0.0023972
-0.002299
-0.0022022
-0.0021073
-0.002014
-0.0019226
-0.001833
-0.0017453
-0.0016595
-0.0015757
-0.0014938
-0.001414
-0.0013362
-0.0012606
-0.001187
-0.0011155
-0.0010463
-0.0009791
-0.0009143
-0.0008515
-0.0007911
-0.0007328
-0.0006769
-0.0006231
-0.0005717
-0.0005225
-0.0004757
-0.0004309
-0.0003886
-0.0003486
-0.0003107
-0.0002751
-0.0002418
-0.0002107
-0.0001819
-0.0001552
-0.0001308
-0.0001085
-8.84e-05
-7.05e-05
-5.45e-05
-4.08e-05
-2.9e-05
-1.94e-05
-1.17e-05
-5.9e-06
-2.2e-06
-3e-07
0
0
18

shape_id 2
num_samples 420
0
0
418

shape_id 3
num_samples 100
0.0069754
0.0069754
0
0
0
37
-0.0069754
-0.0297027
-0.0454545
-0.0454546
-0.0454545
-0.0454546
-0.0454545
-0.0454545
0
-0.0454546
-0.0454545
-0.0454546
-0.0454545
-0.0454546
-0.0454545
-0.0454546
-0.0454545
-0.0454546
-0.0454545
-0.0454545
0
-0.0454546
-0.0454545
-0.0454546
-0.0454545
-0.0227273
0
0
11
0.0227273
0.0454545
0.0454546
0.0454545
0.0454546
0.0454545
0.0454545
0
0.0454546
0.0454545
0.0454546
0.0454545
0.0454546
0.0454545
0.0454546
0.0454545
0.0454546
0.0454545
0.0454545
0
0.0454546
0.0454545
0.0454546
0.0454545

shape_id 4
num_samples 100
0.5
0.5
0
0
0
37
-0.5
-0.6798246
-0.1798245
0
0
53
0.1798245

shape_id 5
num_samples 100
0.0073427
0.0073428
0
0
37
-0.0073428
0.0164668
0.0476191
0.047619
0.0476191
0.047619
0.0476191
0.047619
0.0476191
0.047619
0.0476191
0.047619
0.047619
0
0.0476191
0.047619
0.0476191
0.047619
0.0476191
0.047619
0.0476191
0.047619
0.0476191
0.0238095
0
0
13
-0.0238095
-0.0476191
-0.047619
-0.0476191
-0.047619
-0.0476191
-0.047619
-0.0476191
-0.047619
-0.0476191
-0.047619
-0.047619
0
-0.0476191
-0.047619
-0.0476191
-0.047619
-0.0476191
-0.047619
-0.0476191
-0.047619
-0.0476191

