# Pulseq sequence file
# Created by MATLAB mr toolbox

[VERSION]
major 1
minor 4
revision 0

[DEFINITIONS]
AdcRasterTime 1e-07 
BlockDurationRaster 1e-05 
FOV 0.256 0.256 0.1 
GradientRasterTime 1e-05 
Name NaN 
RadiofrequencyRasterTime 1e-06 

# Format of blocks:
# NUM DUR RF  GX  GY  GZ  ADC  EXT
[BLOCKS]
  1 119   1   2   0   1  0  0
  2 168   0   4   0   3  0  0
  3 119   2   6   7   5  0  0
  4 168   0   9  10   8  0  0
  5 119   3  12  13  11  0  0
  6 168   0   4  15  14  0  0
  7 119   4  17  18  16  0  0
  8 168   0  20  21  19  0  0
  9 119   5  23  24  22  0  0
 10 168   0  26  27  25  0  0
 11 119   6   2   0   1  0  0
 12 168   0   4   0   3  1  0
 13 119   7   6   7   5  0  0
 14 168   0   9  10   8  2  0
 15 119   8  12  13  11  0  0
 16 168   0   4  15  14  3  0
 17 119   9  17  18  16  0  0
 18 168   0  20  21  19  4  0
 19 119  10  23  24  22  0  0
 20 168   0  26  27  25  5  0
 21 119   6   2  29  28  0  0
 22 168   0   4  31  30  1  0
 23 119  11  33  34  32  0  0
 24 168   0  36  37  35  6  0
 25 119  12  39  40  38  0  0
 26 168   0  42  43  41  7  0
 27 119  13  45  46  44  0  0
 28 168   0  48  49  47  8  0
 29 119  14  51  52  50  0  0
 30 168   0  54  55  53  9  0
 31 119   1  12  57  56  0  0
 32 168   0   4  59  58 10  0
 33 119  15  61  62  60  0  0
 34 168   0  64  65  63 11  0
 35 119  16  67  68  66  0  0
 36 168   0  26  70  69 12  0
 37 119  13   2  72  71  0  0
 38 168   0   4  74  73  8  0
 39 119  17  76  77  75  0  0
 40 168   0  79  80  78 13  0
 41 119   5  12  82  81  0  0
 42 168   0   4  84  83 14  0
 43 119  18  17  86  85  0  0
 44 168   0  20  88  87 15  0
 45 119  19  23  90  89  0  0
 46 168   0  54  92  91 16  0
 47 119   9   2  94  93  0  0
 48 168   0   4  96  95  4  0
 49 119  20  98  99  97  0  0
 50 168   0  36 101 100 17  0
 51 119  10  39 103 102  0  0
 52 168   0  42 105 104  5  0
 53 119  18 107 108 106  0  0
 54 168   0  48 110 109 15  0
 55 119  21   6 112 111  0  0
 56 168   0   9 114 113 18  0
 57 119   4  12 116 115  0  0
 58 168   0   4 118 117 19  0
 59 119  22 120 121 119  0  0
 60 168   0 123 124 122 20  0
 61 119  14  67 126 125  0  0
 62 168   0  26 128 127  9  0
 63 119  15   2 130 129  0  0
 64 168   0   4 132 131 11  0
 65 119  23  76 134 133  0  0
 66 168   0  79 136 135 21  0
 67 119   2  12 138 137  0  0
 68 168   0  42 140 139 22  0
 69 119  22 142 143 141  0  0
 70 168   0 145 146 144 20  0
 71 119  17  51 148 147  0  0
 72 168   0  54 150 149 13  0
 73 119  11   2 152 151  0  0
 74 168   0   4 154 153  6  0
 75 119  24  61 156 155  0  0
 76 168   0  64 158 157 23  0
 77 119   7  39 160 159  0  0
 78 168   0  42 162 161  2  0
 79 119  20   2 164 163  0  0
 80 168   0   4 166 165 17  0
 81 119  20   6 168 167  0  0
 82 168   0   9 170 169 17  0
 83 119   7  12 172 171  0  0
 84 168   0   4 174 173  2  0
 85 119  24  17 176 175  0  0
 86 168   0  20 178 177 23  0
 87 119  11  23 180 179  0  0
 88 168   0  26 182 181  6  0
 89 119  17   2 184 183  0  0
 90 168   0   4 186 185 13  0
 91 119  22  33 188 187  0  0
 92 168   0  36 190 189 20  0
 93 119   2  39 192 191  0  0
 94 168   0  42 194 193 22  0
 95 119  23  45 196 195  0  0
 96 168   0  48 198 197 21  0
 97 119  15  51 200 199  0  0
 98 168   0   9 202 201 11  0
 99 119  14  12 204 203  0  0
100 168   0   4 206 205  9  0
101 119  22  61 208 207  0  0
102 168   0 123 210 209 20  0
103 119   4  67 212 211  0  0
104 168   0  26 214 213 19  0
105 119  21   2 216 215  0  0
106 168   0   4 218 217 18  0
107 119  18  76 220 219  0  0
108 168   0  79 222 221 15  0
109 119  10  12 224 223  0  0
110 168   0  42 226 225  5  0
111 119  20 142 228 227  0  0
112 168   0 145 230 229 17  0
113 119   9  23 232 231  0  0
114 168   0  54 234 233  4  0
115 119  19   2 236 235  0  0
116 168   0   4 238 237 16  0
117 119  18  98 240 239  0  0
118 168   0  64 242 241 15  0
119 119   5  39 244 243  0  0
120 168   0  42 246 245 14  0
121 119  17 248 249 247  0  0
122 168   0 251 252 250 13  0
123 119  13   6 254 253  0  0
124 168   0   9 256 255  8  0
125 119  16  12 258 257  0  0
126 168   0   4 260 259 12  0
127 119  15 120 262 261  0  0
128 168   0 123 264 263 11  0
129 119   1  67 266 265  0  0
130 168   0  26 268 267 10  0
131 119  14   2 270 269  0  0
132 168   0   4 272 271  9  0
133 119  13  33 274 273  0  0
134 168   0  36 276 275  8  0
135 119  12  39 278 277  0  0
136 168   0  42 280 279  7  0
137 119  11  45 282 281  0  0
138 168   0 145 284 283  6  0
139 119   6  51 286 285  0  0
140 168   0  54 288 287  1  0
141 119  10   2 290 289  0  0
142 168   0   4 292 291  5  0
143 119   9  61 294 293  0  0
144 168   0  64 296 295  4  0
145 119   8  67 298 297  0  0
146 168   0  26 300 299  3  0
147 119   7   2 302 301  0  0
148 168   0   4 304 303  2  0
149 119   6  76 306 305  0  0
150 168   0  79 308 307  1  0
151 119   5  12 310 309  0  0
152 168   0   4 312 311 14  0
153 119   4  17 314 313  0  0
154 168   0  20 316 315 19  0
155 119   3  23 318 317  0  0
156 168   0  54 320 319 24  0
157 119   2   2 322 321  0  0
158 168   0   4 324 323 22  0
159 119   1  98 326 325  0  0
160 168   0  36 328 327 10  0
161 119   1  39 330 329  0  0
162 168   0  42 332 331 10  0
163 119   2 107 334 333  0  0
164 168   0  48 336 335 22  0
165 119   3  51 338 337  0  0
166 168   0   9 340 339 24  0
167 119   4  12 342 341  0  0
168 168   0   4 344 343 19  0
169 119   5 120 346 345  0  0
170 168   0 123 348 347 14  0
171 119   6  67 350 349  0  0
172 168   0  26 352 351  1  0
173 119   7   2 354 353  0  0
174 168   0   4 356 355  2  0
175 119   8  76 358 357  0  0
176 168   0  79 360 359  3  0
177 119   9  12 362 361  0  0
178 168   0  42 364 363  4  0
179 119  10 142 366 365  0  0
180 168   0 145 368 367  5  0
181 119   6  51 370 369  0  0
182 168   0  54 372 371  1  0
183 119  11   2 374 373  0  0
184 168   0   4 376 375  6  0
185 119  12  98 378 377  0  0
186 168   0  64 380 379  7  0
187 119  13  39 382 381  0  0
188 168   0  42 384 383  8  0
189 119  14   2 386 385  0  0
190 168   0   4 388 387  9  0
191 119   1   6 390 389  0  0
192 168   0   9 392 391 10  0
193 119  15  12 394 393  0  0
194 168   0   4 396 395 11  0
195 119  16  17 398 397  0  0
196 168   0  20 400 399 12  0
197 119  13  23 402 401  0  0
198 168   0  26 404 403  8  0
199 119  17   2 406 405  0  0
200 168   0   4 408 407 13  0
201 119   5  33 410 409  0  0
202 168   0  36 412 411 14  0
203 119  18  39 414 413  0  0
204 168   0  42 416 415 15  0
205 119  19  45 418 417  0  0
206 168   0  48 420 419 16  0
207 119   9  51 422 421  0  0
208 168   0   9 424 423  4  0
209 119  20  12 426 425  0  0
210 168   0   4 428 427 17  0
211 119  10 429 430   1  0  0
212 168   0 431 432   3  5  0
213 119  18 433 434   5  0  0
214 168   0 435 436   8 15  0
215 119  21 437 438  11  0  0
216 168   0 439 440  14 18  0
217 119   4 441 442  16  0  0
218 168   0 443 444  19 19  0
219 119  22 445 446  22  0  0
220 168   0 447 448  25 20  0
221 119  14 449 450  28  0  0
222 168   0 451 452  30  9  0
223 119  15 453 454  32  0  0
224 168   0 455 456  35 11  0
225 119  23 457 458  38  0  0
226 168   0 459 460  41 21  0
227 119   2 461 462  44  0  0
228 168   0 463 464  47 22  0
229 119  22 465 466  50  0  0
230 168   0 467 468  53 20  0
231 119  17 469 470  56  0  0
232 168   0 471 472  58 13  0
233 119  11 473 474  60  0  0
234 168   0 475 476  63  6  0
235 119  24 477 478  66  0  0
236 168   0 479 480  69 23  0
237 119   7 481 482  71  0  0
238 168   0 483 484  73  2  0
239 119  20 485 486  75  0  0
240 168   0 487 488  78 17  0
241 119  20 489 490  81  0  0
242 168   0 491 492  83 17  0
243 119   7 493 494  85  0  0
244 168   0 495 496  87  2  0
245 119  24 497 498  89  0  0
246 168   0 499 500  91 23  0
247 119  11 501 502  93  0  0
248 168   0 503 504  95  6  0
249 119  17 505 506  97  0  0
250 168   0 507 508 100 13  0
251 119  22 509 510 102  0  0
252 168   0 511 512 104 20  0
253 119   2 513 514 106  0  0
254 168   0 515 516 109 22  0
255 119  23 517 518 111  0  0
256 168   0 519 520 113 21  0
257 119  15 521 522 115  0  0
258 168   0 523 524 117 11  0
259 119  14 525 526 119  0  0
260 168   0 527 528 122  9  0
261 119  22 529 530 125  0  0
262 168   0 531 532 127 20  0
263 119   4 533 534 129  0  0
264 168   0 535 536 131 19  0
265 119  21 537 538 133  0  0
266 168   0 539 540 135 18  0
267 119  18 541 542 137  0  0
268 168   0 543 544 139 15  0
269 119  10 545 546 141  0  0
270 168   0 547 548 144  5  0
271 119  20 549 550 147  0  0
272 168   0 551 552 149 17  0
273 119   9 553 554 151  0  0
274 168   0 555 556 153  4  0
275 119  19 557 558 155  0  0
276 168   0 559 560 157 16  0
277 119  18 561 562 159  0  0
278 168   0 563 564 161 15  0
279 119   5 565 566 163  0  0
280 168   0 567 568 165 14  0
281 119  17 569 570 167  0  0
282 168   0 571 572 169 13  0
283 119  13 573 574 171  0  0
284 168   0 575 576 173  8  0
285 119  16 577 578 175  0  0
286 168   0 579 580 177 12  0
287 119  15 581 582 179  0  0
288 168   0 583 584 181 11  0
289 119   1 585 586 183  0  0
290 168   0 587 588 185 10  0
291 119  14 589 590 187  0  0
292 168   0 591 592 189  9  0
293 119  13 593 594 191  0  0
294 168   0 595 596 193  8  0
295 119  12 597 598 195  0  0
296 168   0 599 600 197  7  0
297 119  11 601 602 199  0  0
298 168   0 603 604 201  6  0
299 119   6 605 606 203  0  0
300 168   0 607 608 205  1  0
301 119  10 609 610 207  0  0
302 168   0 611 612 209  5  0
303 119   9 613 614 211  0  0
304 168   0 615 616 213  4  0
305 119   8 617 618 215  0  0
306 168   0 619 620 217  3  0
307 119   7 621 622 219  0  0
308 168   0 623 624 221  2  0
309 119   6 625 626 223  0  0
310 168   0 627 628 225  1  0
311 119   5 629 630 227  0  0
312 168   0 631 632 229 14  0
313 119   4 633 634 231  0  0
314 168   0 635 636 233 19  0
315 119   3 637 638 235  0  0
316 168   0 639 640 237 24  0
317 119   2 641 642 239  0  0
318 168   0 643 644 241 22  0
319 119   1 645 646 243  0  0
320 168   0 647 648 245 10  0
321 119   1 649 650 247  0  0
322 168   0 651 652 250 10  0
323 119   2 653 654 253  0  0
[RF]
1      85.1853 1 2 0 100 0 2.04204
2      85.1853 1 2 0 100 0 4.08407
3      85.1853 1 2 0 100 0 1.88496
4      85.1853 1 2 0 100 0 1.72788
5      85.1853 1 2 0 100 0 3.61283
6      85.1853 1 2 0 100 0 1.25664
7      85.1853 1 2 0 100 0 0.942478
8      85.1853 1 2 0 100 0 2.67035
9      85.1853 1 2 0 100 0 0.15708
10      85.1853 1 2 0 100 0 5.96903
11      85.1853 1 2 0 100 0 4.86947
12      85.1853 1 2 0 100 0 4.24115
13      85.1853 1 2 0 100 0 5.65487
14      85.1853 1 2 0 100 0 2.82743
15      85.1853 1 2 0 100 0 3.29867
16      85.1853 1 2 0 100 0 0.314159
17      85.1853 1 2 0 100 0 0.471239
18      85.1853 1 2 0 100 0 2.51327
19      85.1853 1 2 0 100 0 3.45575
20      85.1853 1 2 0 100 0 5.18363
21      85.1853 1 2 0 100 0 1.09956
22      85.1853 1 2 0 100 0 4.39823
23      85.1853 1 2 0 100 0 5.81195
24      85.1853 1 2 0 100 0 5.02655

# Format of arbitrary gradients:
#   time_shape_id of 0 means default timing (stepping with grad_raster starting at 1/2 of grad_raster)
# id amplitude amp_shape_id time_shape_id delay
# ..      Hz/m       ..         ..          us
[GRADIENTS]
1  1.45929e+06 3 4 90
5  1.39097e+06 5 6 90
11  1.32635e+06 7 8 90
16  1.26513e+06 9 10 90
22  1.20705e+06 11 12 90
28  1.18141e+06 13 12 90
32  1.12688e+06 14 15 90
38    1.075e+06 16 17 90
44  1.05061e+06 18 17 90
50  1.00179e+06 19 20 90
56       955233 21 22 90
60       931977 23 22 90
66       888068 24 25 90
71       865341 26 25 90
75       823889 27 28 90
81       801667 29 28 90
85       762500 30 31 90
89       740761 32 31 90
93       719022 33 31 90
97       682447 34 35 90
102       661170 36 35 90
106       626562 37 38 90
111       605729 39 38 90
115       572959 40 41 90
119       552551 42 41 90
125       532143 43 41 90
129       501500 44 45 90
133       481500 46 45 90
137       461500 47 45 90
141       432843 48 49 90
147       413235 50 49 90
151       393627 51 49 90
155       366827 52 53 90
159       347596 54 53 90
163       328365 55 53 90
167       303302 56 57 90
171       284434 58 57 90
175       265566 59 57 90
179       242130 60 61 90
183       223611 62 61 90
187       205093 63 61 90
191       183182 64 65 90
195       165000 66 65 90
199       146818 67 65 90
203       126339 68 69 90
207       108482 70 69 90
211        90625 71 69 90
215      72767.9 72 69 90
219      53947.4 73 74 90
223        50000 75 74 90
227        50000 76 74 90
231        50000 77 74 90
235        50000 78 74 90
239        50000 79 74 90
243      51315.8 80 74 90
247      70089.3 81 69 90
253      87946.4 82 69 90
257       105804 83 69 90
261       123661 84 69 90
265       144091 85 65 90
269       162273 86 65 90
273       180455 87 65 90
277       202315 88 61 90
281       220833 89 61 90
285       239352 90 61 90
289       262736 91 57 90
293       281604 92 57 90
297       300472 93 57 90
301       325481 94 53 90
305       344712 95 53 90
309       363942 96 53 90
313       383173 97 53 90
317       410294 98 49 90
321       429902 99 49 90
325       458500 100 45 90
329       478500 101 45 90
333       498500 102 45 90
337       529082 103 41 90
341       549490 104 41 90
345       569898 105 41 90
349       602604 106 38 90
353       623438 107 38 90
357       657979 108 35 90
361       679255 109 35 90
365       700532 110 35 90
369       737500 111 31 90
373       759239 112 31 90
377       798333 113 28 90
381       820556 114 28 90
385       861932 115 25 90
389       884659 116 25 90
393       928488 117 22 90
397       951744 118 22 90
401       998214 119 20 90
405  1.04695e+06 120 17 90
409  1.07134e+06 121 17 90
413  1.12312e+06 122 15 90
417  1.14812e+06 123 15 90
421  1.20321e+06 124 12 90
425  1.26118e+06 125 10 90

# Format of trapezoid gradients:
# id amplitude rise flat fall delay
# ..      Hz/m   us   us   us    us
[TRAP]
 2 -2.09578e+06 340    0 340 510
 3      -735294 120  560 120 880
 4   1.6276e+06 260  790 260   0
 6 -2.09572e+06 340    0 340 510
 7     -15895.1 340    0 340 510
 8      -750000 120  560 120 880
 9  1.62756e+06 260  790 260   0
10      12344.3 260  790 260   0
12 -2.09577e+06 340    0 340 510
13     -6071.44 340    0 340 510
14      -764706 120  560 120 880
15      4715.15 260  790 260   0
17 -2.09566e+06 340    0 340 510
18     -21966.3 340    0 340 510
19      -791045 130  540 130 880
20  1.62751e+06 260  790 260   0
21      17059.3 260  790 260   0
23 -2.09574e+06 340    0 340 510
24     -12142.8 340    0 340 510
25      -805970 130  540 130 880
26  1.62758e+06 260  790 260   0
27      9430.25 260  790 260   0
29     -2319.09 340    0 340 510
30      -820896 130  540 130 880
31      1801.03 260  790 260   0
33  -2.0957e+06 340    0 340 510
34     -18214.1 340    0 340 510
35      -848485 140  520 140 880
36  1.62754e+06 260  790 260   0
37      14145.3 260  790 260   0
39 -2.09576e+06 340    0 340 510
40     -8390.52 340    0 340 510
41      -863636 140  520 140 880
42  1.62759e+06 260  790 260   0
43      6516.16 260  790 260   0
45 -2.09564e+06 340    0 340 510
46     -24285.3 340    0 340 510
47      -878788 140  520 140 880
48  1.62749e+06 260  790 260   0
49      18860.2 260  790 260   0
51 -2.09573e+06 340    0 340 510
52     -14461.9 340    0 340 510
53      -893939 140  520 140 880
54  1.62757e+06 260  790 260   0
55      11231.2 260  790 260   0
57     -4638.17 340    0 340 510
58      -923077 150  500 150 880
59      3602.05 260  790 260   0
61 -2.09568e+06 340    0 340 510
62     -20533.1 340    0 340 510
63      -938462 150  500 150 880
64  1.62753e+06 260  790 260   0
65      15946.2 260  790 260   0
67 -2.09575e+06 340    0 340 510
68     -10709.6 340    0 340 510
69      -953846 150  500 150 880
70      8317.17 260  790 260   0
72     -885.813 340    0 340 510
73      -984375 160  480 160 880
74      687.932 260  790 260   0
76 -2.09571e+06 340    0 340 510
77     -16780.9 340    0 340 510
78       -1e+06 160  480 160 880
79  1.62755e+06 260  790 260   0
80      13032.2 260  790 260   0
82     -6957.25 340    0 340 510
83 -1.01562e+06 160  480 160 880
84      5403.07 260  790 260   0
86     -22852.1 340    0 340 510
87 -1.04762e+06 170  460 170 880
88      17747.2 260  790 260   0
90     -13028.6 340    0 340 510
91 -1.06349e+06 170  460 170 880
92      10118.2 260  790 260   0
94      -3204.9 340    0 340 510
95 -1.07937e+06 170  460 170 880
96      2488.96 260  790 260   0
98 -2.09569e+06 340    0 340 510
99     -19099.9 340    0 340 510
100  -1.1129e+06 180  440 180 880
101      14833.2 260  790 260   0
103     -9276.32 340    0 340 510
104 -1.12903e+06 180  440 180 880
105      7204.09 260  790 260   0
107 -2.09563e+06 340    0 340 510
108       -25171 340    0 340 510
109 -1.14516e+06 180  440 180 880
110      19548.1 260  790 260   0
112     -15347.7 340    0 340 510
113 -1.18033e+06 190  420 190 880
114      11919.2 260  790 260   0
116     -5523.98 340    0 340 510
117 -1.19672e+06 190  420 190 880
118      4289.98 260  790 260   0
120 -2.09567e+06 340    0 340 510
121     -21418.9 340    0 340 510
122 -1.21311e+06 190  420 190 880
123  1.62752e+06 260  790 260   0
124      16634.1 260  790 260   0
126     -11595.4 340    0 340 510
127    -1.25e+06 200  400 200 880
128      9005.09 260  790 260   0
130     -1771.63 340    0 340 510
131 -1.26667e+06 200  400 200 880
132      1375.86 260  790 260   0
134     -17666.7 340    0 340 510
135 -1.30508e+06 210  380 210 880
136      13720.1 260  790 260   0
138     -7843.06 340    0 340 510
139 -1.32203e+06 210  380 210 880
140         6091 260  790 260   0
142 -2.09565e+06 340    0 340 510
143     -23737.8 340    0 340 510
144 -1.33898e+06 210  380 210 880
145   1.6275e+06 260  790 260   0
146      18435.1 260  790 260   0
148     -13914.4 340    0 340 510
149 -1.37931e+06 220  360 220 880
150      10806.1 260  790 260   0
152     -4090.71 340    0 340 510
153 -1.39655e+06 220  360 220 880
154      3176.89 260  790 260   0
156     -19985.7 340    0 340 510
157  -1.4386e+06 230  340 230 880
158      15521.1 260  790 260   0
160     -10162.1 340    0 340 510
161 -1.45614e+06 230  340 230 880
162      7892.01 260  790 260   0
164      -338.35 340    0 340 510
165     -1.5e+06 240  320 240 880
166      262.766 260  790 260   0
168     -16233.5 340    0 340 510
169 -1.51786e+06 240  320 240 880
170      12607.1 260  790 260   0
172     -6409.79 340    0 340 510
173 -1.56364e+06 250  300 250 880
174      4977.91 260  790 260   0
176     -22304.7 340    0 340 510
177 -1.58182e+06 250  300 250 880
178        17322 260  790 260   0
180     -12481.2 340    0 340 510
181 -1.62963e+06 260  280 260 880
182      9693.01 260  790 260   0
184     -2657.44 340    0 340 510
185 -1.64815e+06 260  280 260 880
186      2063.79 260  790 260   0
188     -18552.5 340    0 340 510
189 -1.69811e+06 270  260 270 880
190        14408 260  790 260   0
192     -8728.87 340    0 340 510
193 -1.71698e+06 270  260 270 880
194      6778.93 260  790 260   0
196     -24623.6 340    0 340 510
197 -1.76923e+06 280  240 280 880
198      19122.9 260  790 260   0
200     -14800.2 340    0 340 510
201 -1.82353e+06 290  220 290 880
202        11494 260  790 260   0
204     -4976.52 340    0 340 510
205 -1.84314e+06 290  220 290 880
206      3864.82 260  790 260   0
208     -20871.5 340    0 340 510
209     -1.9e+06 300  200 300 880
210        16209 260  790 260   0
212     -11047.9 340    0 340 510
213 -1.95918e+06 310  180 310 880
214      8579.94 260  790 260   0
216     -1224.16 340    0 340 510
217 -1.97959e+06 310  180 310 880
218      950.698 260  790 260   0
220     -17119.2 340    0 340 510
221 -2.04167e+06 320  160 320 880
222        13295 260  790 260   0
224      -7295.6 340    0 340 510
225 -2.10638e+06 330  140 330 880
226      5665.84 260  790 260   0
228     -23190.4 340    0 340 510
229  2.22222e+06 350  100 350 880
230      18009.9 260  790 260   0
232       -13367 340    0 340 510
233  2.10638e+06 330  140 330 880
234      10380.9 260  790 260   0
236     -3543.25 340    0 340 510
237  2.04167e+06 320  160 320 880
238      2751.72 260  790 260   0
240     -19438.2 340    0 340 510
241  1.97959e+06 310  180 310 880
242      15095.9 260  790 260   0
244     -9614.67 340    0 340 510
245  1.95918e+06 310  180 310 880
246      7466.85 260  790 260   0
248 -2.09562e+06 340    0 340 510
249     -25509.3 340    0 340 510
250      1.9e+06 300  200 300 880
251  1.62748e+06 260  790 260   0
252      19810.8 260  790 260   0
254       -15686 340    0 340 510
255  1.84314e+06 290  220 290 880
256      12181.9 260  790 260   0
258     -5862.33 340    0 340 510
259  1.82353e+06 290  220 290 880
260      4552.75 260  790 260   0
262     -21757.2 340    0 340 510
263  1.76923e+06 280  240 280 880
264      16896.9 260  790 260   0
266     -11933.7 340    0 340 510
267  1.71698e+06 270  260 270 880
268      9267.86 260  790 260   0
270     -2109.98 340    0 340 510
271  1.69811e+06 270  260 270 880
272      1638.63 260  790 260   0
274       -18005 340    0 340 510
275  1.64815e+06 260  280 260 880
276      13982.9 260  790 260   0
278     -8181.41 340    0 340 510
279  1.62963e+06 260  280 260 880
280      6353.77 260  790 260   0
282     -24076.2 340    0 340 510
283  1.58182e+06 250  300 250 880
284      18697.8 260  790 260   0
286     -14252.8 340    0 340 510
287  1.56364e+06 250  300 250 880
288      11068.8 260  790 260   0
290     -4429.06 340    0 340 510
291  1.51786e+06 240  320 240 880
292      3439.66 260  790 260   0
294       -20324 340    0 340 510
295      1.5e+06 240  320 240 880
296      15783.8 260  790 260   0
298     -10500.5 340    0 340 510
299  1.45614e+06 230  340 230 880
300      8154.78 260  790 260   0
302     -676.701 340    0 340 510
303   1.4386e+06 230  340 230 880
304      525.533 260  790 260   0
306     -16571.8 340    0 340 510
307  1.39655e+06 220  360 220 880
308      12869.8 260  790 260   0
310     -6748.14 340    0 340 510
311  1.37931e+06 220  360 220 880
312      5240.68 260  790 260   0
314       -22643 340    0 340 510
315  1.33898e+06 210  380 210 880
316      17584.8 260  790 260   0
318     -12819.5 340    0 340 510
319  1.32203e+06 210  380 210 880
320      9955.78 260  790 260   0
322     -2995.79 340    0 340 510
323  1.30508e+06 210  380 210 880
324      2326.56 260  790 260   0
326     -18890.8 340    0 340 510
327  1.26667e+06 200  400 200 880
328      14670.8 260  790 260   0
330     -9067.21 340    0 340 510
331     1.25e+06 200  400 200 880
332      7041.69 260  790 260   0
334     -24961.9 340    0 340 510
335  1.21311e+06 190  420 190 880
336      19385.7 260  790 260   0
338     -15138.6 340    0 340 510
339  1.19672e+06 190  420 190 880
340      11756.8 260  790 260   0
342     -5314.87 340    0 340 510
343  1.18033e+06 190  420 190 880
344      4127.58 260  790 260   0
346     -21209.8 340    0 340 510
347  1.14516e+06 180  440 180 880
348      16471.7 260  790 260   0
350     -11386.3 340    0 340 510
351  1.12903e+06 180  440 180 880
352       8842.7 260  790 260   0
354     -1562.51 340    0 340 510
355   1.1129e+06 180  440 180 880
356      1213.46 260  790 260   0
358     -17457.6 340    0 340 510
359  1.07937e+06 170  460 170 880
360      13557.7 260  790 260   0
362     -7633.95 340    0 340 510
363  1.06349e+06 170  460 170 880
364       5928.6 260  790 260   0
366     -23528.7 340    0 340 510
367  1.04762e+06 170  460 170 880
368      18272.7 260  790 260   0
370     -13705.3 340    0 340 510
371  1.01562e+06 160  480 160 880
372      10643.7 260  790 260   0
374      -3881.6 340    0 340 510
375        1e+06 160  480 160 880
376      3014.49 260  790 260   0
378     -19776.6 340    0 340 510
379       984375 160  480 160 880
380      15358.7 260  790 260   0
382     -9953.02 340    0 340 510
383       953846 150  500 150 880
384      7729.62 260  790 260   0
386     -129.238 340    0 340 510
387       938462 150  500 150 880
388      100.368 260  790 260   0
390     -16024.4 340    0 340 510
391       923077 150  500 150 880
392      12444.7 260  790 260   0
394     -6200.68 340    0 340 510
395       893939 140  520 140 880
396      4815.51 260  790 260   0
398     -22095.6 340    0 340 510
399       878788 140  520 140 880
400      17159.6 260  790 260   0
402     -12272.1 340    0 340 510
403       863636 140  520 140 880
404      9530.62 260  790 260   0
406     -2448.33 340    0 340 510
407       848485 140  520 140 880
408       1901.4 260  790 260   0
410     -18343.4 340    0 340 510
411       820896 130  540 130 880
412      14245.6 260  790 260   0
414     -8519.76 340    0 340 510
415       805970 130  540 130 880
416      6616.53 260  790 260   0
418     -24414.5 340    0 340 510
419       791045 130  540 130 880
420      18960.6 260  790 260   0
422     -14591.1 340    0 340 510
423       764706 120  560 120 880
424      11331.6 260  790 260   0
426     -4767.41 340    0 340 510
427       750000 120  560 120 880
428      3702.42 260  790 260   0
429       759458 340    0 340 510
430 -1.95333e+06 340    0 340 510
431      -589803 260  790 260   0
432  1.51698e+06 260  790 260   0
433       774251 340    0 340 510
434 -1.94752e+06 340    0 340 510
435      -601291 260  790 260   0
436  1.51246e+06 260  790 260   0
437       765114 340    0 340 510
438 -1.95113e+06 340    0 340 510
439      -594195 260  790 260   0
440  1.51526e+06 260  790 260   0
441       779890 340    0 340 510
442 -1.94527e+06 340    0 340 510
443      -605670 260  790 260   0
444  1.51071e+06 260  790 260   0
445       770763 340    0 340 510
446  -1.9489e+06 340    0 340 510
447      -598582 260  790 260   0
448  1.51354e+06 260  790 260   0
449       761619 340    0 340 510
450 -1.95249e+06 340    0 340 510
451      -591481 260  790 260   0
452  1.51633e+06 260  790 260   0
453       776405 340    0 340 510
454 -1.94666e+06 340    0 340 510
455      -602964 260  790 260   0
456   1.5118e+06 260  790 260   0
457       767272 340    0 340 510
458 -1.95028e+06 340    0 340 510
459      -595871 260  790 260   0
460  1.51461e+06 260  790 260   0
461       782042 340    0 340 510
462  -1.9444e+06 340    0 340 510
463      -607342 260  790 260   0
464  1.51004e+06 260  790 260   0
465       772919 340    0 340 510
466 -1.94805e+06 340    0 340 510
467      -600257 260  790 260   0
468  1.51287e+06 260  790 260   0
469       763779 340    0 340 510
470 -1.95165e+06 340    0 340 510
471      -593159 260  790 260   0
472  1.51567e+06 260  790 260   0
473       778559 340    0 340 510
474  -1.9458e+06 340    0 340 510
475      -604637 260  790 260   0
476  1.51113e+06 260  790 260   0
477       769430 340    0 340 510
478 -1.94943e+06 340    0 340 510
479      -597547 260  790 260   0
480  1.51395e+06 260  790 260   0
481       760283 340    0 340 510
482 -1.95301e+06 340    0 340 510
483      -590444 260  790 260   0
484  1.51673e+06 260  790 260   0
485       775074 340    0 340 510
486 -1.94719e+06 340    0 340 510
487      -601930 260  790 260   0
488  1.51221e+06 260  790 260   0
489       765938 340    0 340 510
490  -1.9508e+06 340    0 340 510
491      -594835 260  790 260   0
492  1.51501e+06 260  790 260   0
493       780712 340    0 340 510
494 -1.94494e+06 340    0 340 510
495      -606309 260  790 260   0
496  1.51046e+06 260  790 260   0
497       771586 340    0 340 510
498 -1.94858e+06 340    0 340 510
499      -599222 260  790 260   0
500  1.51328e+06 260  790 260   0
501       762444 340    0 340 510
502 -1.95217e+06 340    0 340 510
503      -592122 260  790 260   0
504  1.51608e+06 260  790 260   0
505       777228 340    0 340 510
506 -1.94633e+06 340    0 340 510
507      -603603 260  790 260   0
508  1.51154e+06 260  790 260   0
509       768096 340    0 340 510
510 -1.94995e+06 340    0 340 510
511      -596512 260  790 260   0
512  1.51435e+06 260  790 260   0
513       782863 340    0 340 510
514 -1.94407e+06 340    0 340 510
515      -607980 260  790 260   0
516  1.50979e+06 260  790 260   0
517       773742 340    0 340 510
518 -1.94772e+06 340    0 340 510
519      -600896 260  790 260   0
520  1.51262e+06 260  790 260   0
521       764604 340    0 340 510
522 -1.95133e+06 340    0 340 510
523      -593799 260  790 260   0
524  1.51542e+06 260  790 260   0
525       779381 340    0 340 510
526 -1.94547e+06 340    0 340 510
527      -605276 260  790 260   0
528  1.51087e+06 260  790 260   0
529       770254 340    0 340 510
530  -1.9491e+06 340    0 340 510
531      -598187 260  790 260   0
532  1.51369e+06 260  790 260   0
533       761109 340    0 340 510
534 -1.95269e+06 340    0 340 510
535      -591085 260  790 260   0
536  1.51648e+06 260  790 260   0
537       775897 340    0 340 510
538 -1.94686e+06 340    0 340 510
539      -602570 260  790 260   0
540  1.51195e+06 260  790 260   0
541       766763 340    0 340 510
542 -1.95048e+06 340    0 340 510
543      -595476 260  790 260   0
544  1.51476e+06 260  790 260   0
545       781534 340    0 340 510
546 -1.94461e+06 340    0 340 510
547      -606947 260  790 260   0
548   1.5102e+06 260  790 260   0
549       772410 340    0 340 510
550 -1.94825e+06 340    0 340 510
551      -599862 260  790 260   0
552  1.51303e+06 260  790 260   0
553       763269 340    0 340 510
554 -1.95185e+06 340    0 340 510
555      -592763 260  790 260   0
556  1.51583e+06 260  790 260   0
557       778051 340    0 340 510
558   -1.946e+06 340    0 340 510
559      -604242 260  790 260   0
560  1.51129e+06 260  790 260   0
561       768920 340    0 340 510
562 -1.94963e+06 340    0 340 510
563      -597152 260  790 260   0
564   1.5141e+06 260  790 260   0
565       759773 340    0 340 510
566 -1.95321e+06 340    0 340 510
567      -590048 260  790 260   0
568  1.51688e+06 260  790 260   0
569       774565 340    0 340 510
570 -1.94739e+06 340    0 340 510
571      -601535 260  790 260   0
572  1.51237e+06 260  790 260   0
573       765429 340    0 340 510
574   -1.951e+06 340    0 340 510
575      -594440 260  790 260   0
576  1.51517e+06 260  790 260   0
577       780204 340    0 340 510
578 -1.94514e+06 340    0 340 510
