# Pulseq sequence file
# Created by MATLAB mr toolbox

[VERSION]
major 1
minor 4
revision 0

[DEFINITIONS]
AdcRasterTime 1e-07 
BlockDurationRaster 1e-05 
FOV 0.18 0.18 0.048 
GradientRasterTime 1e-05 
Name NaN 
RadiofrequencyRasterTime 1e-06 
TotalDuration 1.1623 

# Format of blocks:
# NUM DUR RF  GX  GY  GZ  ADC  EXT
[BLOCKS]
  1 351   1   2   0   1  0  0
  2 239   0   4   0   3  0  0
  3 351   2   6   7   5  0  0
  4 239   0   9  10   8  0  0
  5 351   3  12  13  11  0  0
  6 239   0  15  16  14  0  0
  7 351   4  18  19  17  0  0
  8 239   0  21  22  20  0  0
  9 351   5  24  25  23  0  0
 10 239   0  27  28  26  0  0
 11 351   6   2   0   1  0  0
 12 239   0   4   0   3  1  0
 13 351   7   6   7   5  0  0
 14 239   0   9  10   8  2  0
 15 351   8  12  13  11  0  0
 16 239   0  15  16  14  3  0
 17 351   9  18  19  17  0  0
 18 239   0  21  22  20  4  0
 19 351  10  24  25  23  0  0
 20 239   0  27  28  26  5  0
 21 351   6   2  30  29  0  0
 22 239   0   4  32  31  1  0
 23 351  11  34  35  33  0  0
 24 239   0  37  38  36  6  0
 25 351  12  40  41  39  0  0
 26 239   0  43  44  42  7  0
 27 351  13  46  47  45  0  0
 28 239   0  49  50  48  8  0
 29 351  14  52  53  51  0  0
 30 239   0  55  56  54  9  0
 31 351   1   2  58  57  0  0
 32 239   0  15  60  59 10  0
 33 351  15  62  63  61  0  0
 34 239   0  65  66  64 11  0
 35 351  16  68  69  67  0  0
 36 239   0  71  72  70 12  0
 37 351  13   2  74  73  0  0
 38 239   0   4  76  75  8  0
 39 351  17  78  79  77  0  0
 40 239   0  81  82  80 13  0
 41 351   5  12  84  83  0  0
 42 239   0  15  86  85 14  0
 43 351  18  88  89  87  0  0
 44 239   0  91  92  90 15  0
 45 351  19  94  95  93  0  0
 46 239   0  27  97  96 16  0
 47 351   9   2  99  98  0  0
 48 239   0  15 101 100  4  0
 49 351  20 103 104 102  0  0
 50 239   0 106 107 105 17  0
 51 351  10  40 109 108  0  0
 52 239   0  43 111 110  5  0
 53 351  18 113 114 112  0  0
 54 239   0 116 117 115 15  0
 55 351  21   6 119 118  0  0
 56 239   0   9 121 120 18  0
 57 351   4  12 123 122  0  0
 58 239   0  15 125 124 19  0
 59 351  22 127 128 126  0  0
 60 239   0  21 130 129 20  0
 61 351  14  24 132 131  0  0
 62 239   0  71 134 133  9  0
 63 351  15   2 136 135  0  0
 64 239   0   4 138 137 11  0
 65 351  23  34 140 139  0  0
 66 239   0  81 142 141 21  0
 67 351   2  40 144 143  0  0
 68 239   0  43 146 145 22  0
 69 351  22 148 149 147  0  0
 70 239   0 151 152 150 20  0
 71 351  17  94 154 153  0  0
 72 239   0  55 156 155 13  0
 73 351  11   2 158 157  0  0
 74 239   0  15 160 159  6  0
 75 351  24 162 163 161  0  0
 76 239   0 106 165 164 23  0
 77 351   7  68 167 166  0  0
 78 239   0  71 169 168  2  0
 79 351  20   2 171 170  0  0
 80 239   0   4 173 172 17  0
 81 351  20   6 175 174  0  0
 82 239   0   9 177 176 17  0
 83 351   7  12 179 178  0  0
 84 239   0  15 181 180  2  0
 85 351  24  18 183 182  0  0
 86 239   0  91 185 184 23  0
 87 351  11  24 187 186  0  0
 88 239   0  27 189 188  6  0
 89 351  17   2 191 190  0  0
 90 239   0   4 193 192 13  0
 91 351  22 103 195 194  0  0
 92 239   0  37 197 196 20  0
 93 351   2  40 199 198  0  0
 94 239   0  43 201 200 22  0
 95 351  23  46 203 202  0  0
 96 239   0  49 205 204 21  0
 97 351  15  52 207 206  0  0
 98 239   0  55 209 208 11  0
 99 351  14   2 211 210  0  0
100 239   0  15 213 212  9  0
101 351  22  62 215 214  0  0
102 239   0  65 217 216 20  0
103 351   4  68 219 218  0  0
104 239   0  71 221 220 19  0
105 351  21   2 223 222  0  0
106 239   0   4 225 224 18  0
107 351  18  78 227 226  0  0
108 239   0  81 229 228 15  0
109 351  10  12 231 230  0  0
110 239   0  43 233 232  5  0
111 351  20  88 235 234  0  0
112 239   0  91 237 236 17  0
113 351   9  94 239 238  0  0
114 239   0  27 241 240  4  0
115 351  19   2 243 242  0  0
116 239   0  15 245 244 16  0
117 351  18 162 247 246  0  0
118 239   0 106 249 248 15  0
119 351   5  40 251 250  0  0
120 239   0  43 253 252 14  0
121 351  17 255 256 254  0  0
122 239   0 116 258 257 13  0
123 351  13   6 260 259  0  0
124 239   0   9 262 261  8  0
125 351  16  12 264 263  0  0
126 239   0  15 266 265 12  0
127 351  15 127 268 267  0  0
128 239   0  21 270 269 11  0
129 351   1  24 272 271  0  0
130 239   0  27 274 273 10  0
131 351  14   2 276 275  0  0
132 239   0   4 278 277  9  0
133 351  13  34 280 279  0  0
134 239   0  37 282 281  8  0
135 351  12  40 284 283  0  0
136 239   0  43 286 285  7  0
137 351  11  46 288 287  0  0
138 239   0 151 290 289  6  0
139 351   6  52 292 291  0  0
140 239   0  55 294 293  1  0
141 351  10   2 296 295  0  0
142 239   0  15 298 297  5  0
143 351   9  62 300 299  0  0
144 239   0  65 302 301  4  0
145 351   8  68 304 303  0  0
146 239   0  71 306 305  3  0
147 351   7   2 308 307  0  0
148 239   0   4 310 309  2  0
149 351   6  78 312 311  0  0
150 239   0  81 314 313  1  0
151 351   5  12 316 315  0  0
152 239   0  15 318 317 14  0
153 351   4  88 320 319  0  0
154 239   0  91 322 321 19  0
155 351   3  94 324 323  0  0
156 239   0  27 326 325 24  0
157 351   2   2 328 327  0  0
158 239   0  15 330 329 22  0
159 351   1 103 332 331  0  0
160 239   0  37 334 333 10  0
161 351   1  40 336 335  0  0
162 239   0  43 338 337 10  0
163 351   2 113 340 339  0  0
164 239   0  49 342 341 22  0
165 351   3  52 344 343  0  0
166 239   0  55 346 345 24  0
167 351   4  12 348 347  0  0
168 239   0  15 350 349 19  0
169 351   5 127 352 351  0  0
170 239   0  65 354 353 14  0
171 351   6  24 356 355  0  0
172 239   0  71 358 357  1  0
173 351   7   2 360 359  0  0
174 239   0   4 362 361  2  0
175 351   8  34 364 363  0  0
176 239   0  81 366 365  3  0
177 351   9  12 368 367  0  0
178 239   0  43 370 369  4  0
179 351  10 148 372 371  0  0
180 239   0 151 374 373  5  0
181 351   6  94 376 375  0  0
182 239   0  55 378 377  1  0
183 351  11   2 380 379  0  0
184 239   0  15 382 381  6  0
185 351  12 162 384 383  0  0
186 239   0 106 386 385  7  0
187 351  13  68 388 387  0  0
188 239   0  71 390 389  8  0
189 351  14   2 392 391  0  0
190 239   0   4 394 393  9  0
191 351   1   6 396 395  0  0
192 239   0   9 398 397 10  0
193 351  15  12 400 399  0  0
194 239   0  15 402 401 11  0
195 351  16  18 404 403  0  0
196 239   0  21 406 405 12  0
197 351  13  24 408 407  0  0
198 239   0  27 410 409  8  0
199 351  17   2 412 411  0  0
200 239   0   4 414 413 13  0
201 351   5 103 416 415  0  0
202 239   0  37 418 417 14  0
203 351  18 419 420   1  0  0
204 239   0 421 422   3 15  0
205 351  19 423 424   5  0  0
206 239   0 425 426   8 16  0
207 351   9 427 428  11  0  0
208 239   0 429 430  14  4  0
209 351  20 431 432  17  0  0
210 239   0 433 434  20 17  0
211 351  10 435 436  23  0  0
212 239   0 437 438  26  5  0
213 351  18 439 440  29  0  0
214 239   0 441 442  31 15  0
215 351  21 443 444  33  0  0
216 239   0 445 446  36 18  0
217 351   4 447 448  39  0  0
218 239   0 449 450  42 19  0
219 351  22 451 452  45  0  0
220 239   0 453 454  48 20  0
221 351  14 455 456  51  0  0
222 239   0 457 458  54  9  0
223 351  15 459 460  57  0  0
224 239   0 461 462  59 11  0
225 351  23 463 464  61  0  0
226 239   0 465 466  64 21  0
227 351   2 467 468  67  0  0
228 239   0 469 470  70 22  0
229 351  22 471 472  73  0  0
230 239   0 473 474  75 20  0
231 351  17 475 476  77  0  0
232 239   0 477 478  80 13  0
233 351  11 479 480  83  0  0
234 239   0 481 482  85  6  0
235 351  24 483 484  87  0  0
236 239   0 485 486  90 23  0
237 351   7 487 488  93  0  0
238 239   0 489 490  96  2  0
239 351  20 491 492  98  0  0
240 239   0 493 494 100 17  0
241 351  20 495 496 102  0  0
242 239   0 497 498 105 17  0
243 351   7 499 500 108  0  0
244 239   0 501 502 110  2  0
245 351  24 503 504 112  0  0
246 239   0 505 506 115 23  0
247 351  11 507 508 118  0  0
248 239   0 509 510 120  6  0
249 351  17 511 512 122  0  0
250 239   0 513 514 124 13  0
251 351  22 515 516 126  0  0
252 239   0 517 518 129 20  0
253 351   2 519 520 131  0  0
254 239   0 521 522 133 22  0
255 351  23 523 524 135  0  0
256 239   0 525 526 137 21  0
257 351  15 527 528 139  0  0
258 239   0 529 530 141 11  0
259 351  14 531 532 143  0  0
260 239   0 533 534 145  9  0
261 351  22 535 536 147  0  0
262 239   0 537 538 150 20  0
263 351   4 539 540 153  0  0
264 239   0 541 542 155 19  0
265 351  21 543 544 157  0  0
266 239   0 545 546 159 18  0
267 351  18 547 548 161  0  0
268 239   0 549 550 164 15  0
269 351  10 551 552 166  0  0
270 239   0 553 554 168  5  0
271 351  20 555 556 170  0  0
272 239   0 557 558 172 17  0
273 351   9 559 560 174  0  0
274 239   0 561 562 176  4  0
275 351  19 563 564 178  0  0
276 239   0 565 566 180 16  0
277 351  18 567 568 182  0  0
278 239   0 569 570 184 15  0
279 351   5 571 572 186  0  0
280 239   0 573 574 188 14  0
281 351  17 575 576 190  0  0
282 239   0 577 578 192 13  0
283 351  13 579 580 194  0  0
284 239   0 581 582 196  8  0
285 351  16 583 584 198  0  0
286 239   0 585 586 200 12  0
287 351  15 587 588 202  0  0
288 239   0 589 590 204 11  0
289 351   1 591 592 206  0  0
290 239   0 593 594 208 10  0
291 351  14 595 596 210  0  0
292 239   0 597 598 212  9  0
293 351  13 599 600 214  0  0
294 239   0 601 602 216  8  0
295 351  12 603 604 218  0  0
296 239   0 605 606 220  7  0
297 351  11 607 608 222  0  0
298 239   0 609 610 224  6  0
299 351   6 611 612 226  0  0
300 239   0 613 614 228  1  0
301 351  10 615 616 230  0  0
302 239   0 617 618 232  5  0
303 351   9 619 620 234  0  0
304 239   0 621 622 236  4  0
305 351   8 623 624 238  0  0
306 239   0 625 626 240  3  0
307 351   7 627 628 242  0  0
308 239   0 629 630 244  2  0
309 351   6 631 632 246  0  0
310 239   0 633 634 248  1  0
311 351   5 635 636 250  0  0
312 239   0 637 638 252 14  0
313 351   4 639 640 254  0  0
314 239   0 641 642 257 19  0
315 351   3 643 644 259  0  0
316 239   0 645 646 261 24  0
317 351   2 647 648 263  0  0
318 239   0 649 650 265 22  0
319 351   1 651 652 267  0  0
320 239   0 653 654 269 10  0
321 351   1 655 656 271  0  0
322 239   0 657 658 273 10  0
[RF]
1      282.351 1 2 0 100 0 2.04204
2      282.351 1 2 0 100 0 4.08407
3      282.351 1 2 0 100 0 1.88496
4      282.351 1 2 0 100 0 1.72788
5      282.351 1 2 0 100 0 3.61283
6      282.351 1 2 0 100 0 1.25664
7      282.351 1 2 0 100 0 0.942478
8      282.351 1 2 0 100 0 2.67035
9      282.351 1 2 0 100 0 0.15708
10      282.351 1 2 0 100 0 5.96903
11      282.351 1 2 0 100 0 4.86947
12      282.351 1 2 0 100 0 4.24115
13      282.351 1 2 0 100 0 5.65487
14      282.351 1 2 0 100 0 2.82743
15      282.351 1 2 0 100 0 3.29867
16      282.351 1 2 0 100 0 0.314159
17      282.351 1 2 0 100 0 0.471239
18      282.351 1 2 0 100 0 2.51327
19      282.351 1 2 0 100 0 3.45575
20      282.351 1 2 0 100 0 5.18363
21      282.351 1 2 0 100 0 1.09956
22      282.351 1 2 0 100 0 4.39823
23      282.351 1 2 0 100 0 5.81195
24      282.351 1 2 0 100 0 5.02655

# Format of arbitrary gradients:
#   time_shape_id of 0 means default timing (stepping with grad_raster starting at 1/2 of grad_raster)
# id amplitude amp_shape_id time_shape_id delay
# ..      Hz/m       ..         ..          us
[GRADIENTS]
1  2.01271e+06 3 4 80
5  1.90739e+06 5 6 80
11  1.80909e+06 7 8 80
17  1.74528e+06 9 10 80
23  1.68352e+06 11 12 80
29  1.62373e+06 13 14 80
33  1.54172e+06 15 16 80
39   1.4868e+06 17 18 80
45  1.43351e+06 19 20 80
51  1.38179e+06 21 22 80
57  1.35115e+06 23 22 80
61  1.30138e+06 24 25 80
67  1.25303e+06 26 27 80
73  1.20604e+06 28 29 80
77  1.16035e+06 30 31 80
83  1.11592e+06 32 33 80
87  1.08738e+06 34 33 80
93  1.04453e+06 35 36 80
98  1.00282e+06 37 38 80
102       975047 39 38 80
108       934805 40 41 80
112       895609 42 43 80
118       868552 44 43 80
122       830708 45 46 80
126       793821 47 48 80
131       767450 49 48 80
135       731815 50 51 80
139       705773 52 51 80
143       671340 53 54 80
147       637746 55 56 80
153       612340 57 56 80
157       579862 58 59 80
161       554761 60 59 80
166       523356 61 62 80
170       498554 63 62 80
174       468179 64 65 80
178       443669 66 65 80
182       414285 67 68 80
186       390060 69 68 80
190       361631 70 71 80
194       337684 72 71 80
198       310173 73 74 80
202       286498 75 74 80
206       259871 76 77 80
210       236463 78 77 80
214       210687 79 80 80
218       187539 81 80 80
222       164391 82 80 80
226       139691 83 84 80
230       116797 85 84 80
234       105932 86 87 80
238       105932 88 87 80
242       105932 89 90 80
246       105932 91 90 80
250       105932 92 90 80
254       105932 93 90 80
259       105932 94 90 80
263       105932 95 87 80
267       105932 96 87 80
271       112141 97 84 80
275       135034 98 84 80
279       157928 99 84 80
283       182831 100 80 80
287       205979 101 80 80
291       231702 102 77 80
295       255110 103 77 80
299       281683 104 74 80
303       305358 105 74 80
307       332814 106 71 80
311       356760 107 71 80
315       385133 108 68 80
319       409358 109 68 80
323       438684 110 65 80
327       463194 111 65 80
331       493510 112 62 80
335       518311 113 62 80
339       549656 114 59 80
343       574757 115 59 80
347       607172 116 56 80
351       632579 117 56 80
355       666109 118 54 80
359       691829 119 54 80
363       726518 120 51 80
367       762086 121 48 80
371       788457 122 48 80
375       825275 123 46 80
379       863049 124 43 80
383       890106 125 43 80
387       929230 126 41 80
391       956642 127 41 80
395       997175 128 38 80
399   1.0388e+06 129 36 80
403  1.08157e+06 130 33 80
407  1.11011e+06 131 33 80
411  1.15446e+06 132 31 80
415  1.20007e+06 133 29 80

# Format of trapezoid gradients:
# id amplitude rise flat fall delay
# ..      Hz/m   us   us   us    us
[TRAP]
 2 -2.55254e+06 480   60 480 2490
 3           -0  10  860  10 1390
 4  1.98413e+06 380 1560 380   0
 6 -2.55247e+06 480   60 480 2490
 7     -19359.4 480   60 480 2490
 8     -23946.4  10  860  10 1390
 9  1.98407e+06 380 1560 380   0
10      15048.3 380 1560 380   0
12 -2.55253e+06 480   60 480 2490
13     -7394.68 480   60 480 2490
14     -47892.7  10  860  10 1390
15  1.98412e+06 380 1560 380   0
16      5747.99 380 1560 380   0
18  -2.5524e+06 480   60 480 2490
19     -26753.8 480   60 480 2490
20     -72674.4  20  840  20 1390
21  1.98402e+06 380 1560 380   0
22      20796.1 380 1560 380   0
24  -2.5525e+06 480   60 480 2490
25     -14789.3 480   60 480 2490
26     -96899.2  20  840  20 1390
27  1.98409e+06 380 1560 380   0
28      11495.9 380 1560 380   0
30     -2824.52 480   60 480 2490
31      -122549  30  820  30 1390
32      2195.54 380 1560 380   0
34 -2.55245e+06 480   60 480 2490
35     -22183.8 480   60 480 2490
36      -147059  30  820  30 1390
37  1.98405e+06 380 1560 380   0
38      17243.8 380 1560 380   0
40 -2.55252e+06 480   60 480 2490
41     -10219.2 480   60 480 2490
42      -173611  40  800  40 1390
43  1.98411e+06 380 1560 380   0
44      7943.51 380 1560 380   0
46 -2.55237e+06 480   60 480 2490
47     -29578.1 480   60 480 2490
48      -198413  40  800  40 1390
49  1.98399e+06 380 1560 380   0
50      22991.5 380 1560 380   0
52 -2.55248e+06 480   60 480 2490
53     -17613.8 480   60 480 2490
54      -225904  50  780  50 1390
55  1.98408e+06 380 1560 380   0
56      13691.4 380 1560 380   0
58     -5649.04 480   60 480 2490
59      -251004  50  780  50 1390
60      4391.07 380 1560 380   0
62 -2.55242e+06 480   60 480 2490
63     -25008.2 480   60 480 2490
64      -279472  60  760  60 1390
65  1.98403e+06 380 1560 380   0
66      19439.2 380 1560 380   0
68 -2.55251e+06 480   60 480 2490
69     -13043.7 480   60 480 2490
70      -304878  60  760  60 1390
71   1.9841e+06 380 1560 380   0
72        10139 380 1560 380   0
74     -1078.87 480   60 480 2490
75      -334362  70  740  70 1390
76      838.621 380 1560 380   0
78 -2.55246e+06 480   60 480 2490
79     -20438.2 480   60 480 2490
80      -360082  70  740  70 1390
81  1.98406e+06 380 1560 380   0
82      15886.9 380 1560 380   0
84     -8473.55 480   60 480 2490
85      -390625  80  720  80 1390
86      6586.61 380 1560 380   0
88 -2.55239e+06 480   60 480 2490
89     -27832.6 480   60 480 2490
90      -416667  80  720  80 1390
91  1.98401e+06 380 1560 380   0
92      21634.6 380 1560 380   0
94 -2.55249e+06 480   60 480 2490
95     -15868.1 480   60 480 2490
96      -448312  90  700  90 1390
97      12334.5 380 1560 380   0
99     -3903.39 480   60 480 2490
100      -474684  90  700  90 1390
101      3034.16 380 1560 380   0
103 -2.55244e+06 480   60 480 2490
104     -23262.6 480   60 480 2490
105      -507479 100  680 100 1390
106  1.98404e+06 380 1560 380   0
107      18082.4 380 1560 380   0
109       -11298 480   60 480 2490
110      -541126 110  660 110 1390
111      8782.13 380 1560 380   0
113 -2.55236e+06 480   60 480 2490
114     -30656.9 480   60 480 2490
115      -568182 110  660 110 1390
116  1.98398e+06 380 1560 380   0
117        23830 380 1560 380   0
119     -18692.6 480   60 480 2490
120      -603070 120  640 120 1390
121        14530 380 1560 380   0
123      -6727.9 480   60 480 2490
124      -630482 120  640 120 1390
125      5229.69 380 1560 380   0
127 -2.55241e+06 480   60 480 2490
128       -26087 480   60 480 2490
129      -666667 130  620 130 1390
130      20277.8 380 1560 380   0
132     -14122.5 480   60 480 2490
133      -703829 140  600 140 1390
134      10977.6 380 1560 380   0
136     -2157.74 480   60 480 2490
137      -731982 140  600 140 1390
138      1677.24 380 1560 380   0
140       -21517 480   60 480 2490
141      -770548 150  580 150 1390
142      16725.5 380 1560 380   0
144     -9552.41 480   60 480 2490
145      -810185 160  560 160 1390
146      7425.22 380 1560 380   0
148 -2.55238e+06 480   60 480 2490
149     -28911.4 480   60 480 2490
150      -839120 160  560 160 1390
151    1.984e+06 380 1560 380   0
152      22473.2 380 1560 380   0
154       -16947 480   60 480 2490
155      -880282 170  540 170 1390
156      13173.1 380 1560 380   0
158     -4982.26 480   60 480 2490
159      -922619 180  520 180 1390
160      3872.78 380 1560 380   0
162 -2.55243e+06 480   60 480 2490
163     -24341.4 480   60 480 2490
164      -952381 180  520 180 1390
165      18920.9 380 1560 380   0
167     -12376.9 480   60 480 2490
168      -996377 190  500 190 1390
169      9620.74 380 1560 380   0
171     -412.092 480   60 480 2490
172 -1.04167e+06 200  480 200 1390
173      320.325 380 1560 380   0
175     -19771.4 480   60 480 2490
176 -1.08831e+06 210  460 210 1390
177      15368.6 380 1560 380   0
179     -7806.77 480   60 480 2490
180 -1.13636e+06 220  440 220 1390
181      6068.31 380 1560 380   0
183     -27165.8 480   60 480 2490
184 -1.16793e+06 220  440 220 1390
185      21116.4 380 1560 380   0
187     -15201.4 480   60 480 2490
188 -1.21795e+06 230  420 230 1390
189      11816.2 380 1560 380   0
191     -3236.61 480   60 480 2490
192 -1.26953e+06 240  400 240 1390
193      2515.86 380 1560 380   0
195     -22595.9 480   60 480 2490
196 -1.32275e+06 250  380 250 1390
197      17564.1 380 1560 380   0
199     -10631.3 480   60 480 2490
200 -1.37769e+06 260  360 260 1390
201      8263.84 380 1560 380   0
203     -29990.2 480   60 480 2490
204 -1.43443e+06 270  340 270 1390
205      23311.8 380 1560 380   0
207     -18025.8 480   60 480 2490
208 -1.51836e+06 290  300 290 1390
209      14011.7 380 1560 380   0
211     -6061.13 480   60 480 2490
212 -1.58046e+06 300  280 300 1390
213       4711.4 380 1560 380   0
215     -25420.3 480   60 480 2490
216 -1.64474e+06 310  260 310 1390
217      19759.5 380 1560 380   0
219     -13455.8 480   60 480 2490
220 -1.74242e+06 330  220 330 1390
221      10459.4 380 1560 380   0
223     -1490.96 480   60 480 2490
224 -1.84748e+06 350  180 350 1390
225      1158.95 380 1560 380   0
227     -20850.3 480   60 480 2490
228  1.96078e+06 370  140 370 1390
229      16207.2 380 1560 380   0
231     -8885.64 480   60 480 2490
232  1.84748e+06 350  180 350 1390
233      6906.93 380 1560 380   0
235     -28244.6 480   60 480 2490
236  1.74242e+06 330  220 330 1390
237      21954.9 380 1560 380   0
239     -16280.2 480   60 480 2490
240  1.64474e+06 310  260 310 1390
241      12654.9 380 1560 380   0
243     -4315.48 480   60 480 2490
244  1.58046e+06 300  280 300 1390
245      3354.48 380 1560 380   0
247     -23674.7 480   60 480 2490
248  1.51836e+06 290  300 290 1390
249      18402.7 380 1560 380   0
251     -11710.1 480   60 480 2490
252  1.43443e+06 270  340 270 1390
253      9102.45 380 1560 380   0
255 -2.55235e+06 480   60 480 2490
256       -31069 480   60 480 2490
257  1.37769e+06 260  360 260 1390
258      24150.3 380 1560 380   0
260     -19104.7 480   60 480 2490
261  1.32275e+06 250  380 250 1390
262      14850.3 380 1560 380   0
264     -7139.99 480   60 480 2490
265  1.26953e+06 240  400 240 1390
266      5550.02 380 1560 380   0
268     -26499.1 480   60 480 2490
269  1.21795e+06 230  420 230 1390
270      20598.1 380 1560 380   0
272     -14534.6 480   60 480 2490
273  1.16793e+06 220  440 220 1390
274        11298 380 1560 380   0
276     -2569.83 480   60 480 2490
277  1.13636e+06 220  440 220 1390
278      1997.57 380 1560 380   0
280     -21929.1 480   60 480 2490
281  1.08831e+06 210  460 210 1390
282      17045.8 380 1560 380   0
284      -9964.5 480   60 480 2490
285  1.04167e+06 200  480 200 1390
286      7745.54 380 1560 380   0
288     -29323.4 480   60 480 2490
289       996377 190  500 190 1390
290      22793.5 380 1560 380   0
292     -17359.1 480   60 480 2490
293       952381 180  520 180 1390
294      13493.5 380 1560 380   0
296     -5394.35 480   60 480 2490
297       922619 180  520 180 1390
298       4193.1 380 1560 380   0
300     -24753.5 480   60 480 2490
301       880282 170  540 170 1390
302      19241.3 380 1560 380   0
304       -12789 480   60 480 2490
305       839120 160  560 160 1390
306      9941.06 380 1560 380   0
308     -824.184 480   60 480 2490
309       810185 160  560 160 1390
310       640.65 380 1560 380   0
312     -20183.5 480   60 480 2490
313       770548 150  580 150 1390
314      15688.9 380 1560 380   0
316     -8218.86 480   60 480 2490
317       731982 140  600 140 1390
318      6388.63 380 1560 380   0
320     -27577.9 480   60 480 2490
321       703829 140  600 140 1390
322      21436.7 380 1560 380   0
324     -15613.5 480   60 480 2490
325       666667 130  620 130 1390
326      12136.6 380 1560 380   0
328      -3648.7 480   60 480 2490
329       630482 120  640 120 1390
330      2836.19 380 1560 380   0
332     -23007.9 480   60 480 2490
333       603070 120  640 120 1390
334      17884.4 380 1560 380   0
336     -11043.4 480   60 480 2490
337       568182 110  660 110 1390
338      8584.16 380 1560 380   0
340     -30402.2 480   60 480 2490
341       541126 110  660 110 1390
342      23632.1 380 1560 380   0
344     -18437.9 480   60 480 2490
345       507479 100  680 100 1390
346      14332.1 380 1560 380   0
348     -6473.22 480   60 480 2490
349       474684  90  700  90 1390
350      5031.72 380 1560 380   0
352     -25832.3 480   60 480 2490
353       448312  90  700  90 1390
354      20079.8 380 1560 380   0
356     -13867.8 480   60 480 2490
357       416667  80  720  80 1390
358      10779.7 380 1560 380   0
360     -1903.05 480   60 480 2490
361       390625  80  720  80 1390
362      1479.27 380 1560 380   0
364     -21262.4 480   60 480 2490
365       360082  70  740  70 1390
366      16527.5 380 1560 380   0
368     -9297.72 480   60 480 2490
369       334362  70  740  70 1390
370      7227.25 380 1560 380   0
372     -28656.7 480   60 480 2490
373       304878  60  760  60 1390
374      22275.2 380 1560 380   0
376     -16692.3 480   60 480 2490
377       279472  60  760  60 1390
378      12975.2 380 1560 380   0
380     -4727.57 480   60 480 2490
381       251004  50  780  50 1390
382      3674.81 380 1560 380   0
384     -24086.8 480   60 480 2490
385       225904  50  780  50 1390
386        18723 380 1560 380   0
388     -12122.2 480   60 480 2490
389       198413  40  800  40 1390
390      9422.77 380 1560 380   0
392     -157.405 480   60 480 2490
393       173611  40  800  40 1390
394      122.353 380 1560 380   0
396     -19516.8 480   60 480 2490
397       147059  30  820  30 1390
398      15170.7 380 1560 380   0
400     -7552.08 480   60 480 2490
401       122549  30  820  30 1390
402      5870.34 380 1560 380   0
404     -26911.1 480   60 480 2490
405      96899.2  20  840  20 1390
406      20918.4 380 1560 380   0
408     -14946.7 480   60 480 2490
409      72674.4  20  840  20 1390
410      11618.3 380 1560 380   0
412     -2981.92 480   60 480 2490
413      47892.7  10  860  10 1390
414      2317.89 380 1560 380   0
416     -22341.2 480   60 480 2490
417      23946.4  10  860  10 1390
418      17366.1 380 1560 380   0
419       924977 480   60 480 2490
420 -2.37905e+06 480   60 480 2490
421      -718998 380 1560 380   0
422  1.84927e+06 380 1560 380   0
423       942994 480   60 480 2490
424 -2.37197e+06 480   60 480 2490
425      -733003 380 1560 380   0
426  1.84376e+06 380 1560 380   0
427       931866 480   60 480 2490
428 -2.37636e+06 480   60 480 2490
429      -724352 380 1560 380   0
430  1.84718e+06 380 1560 380   0
431       949862 480   60 480 2490
432 -2.36923e+06 480   60 480 2490
433      -738341 380 1560 380   0
434  1.84163e+06 380 1560 380   0
435       938746 480   60 480 2490
436 -2.37365e+06 480   60 480 2490
437      -729700 380 1560 380   0
438  1.84507e+06 380 1560 380   0
439       927609 480   60 480 2490
440 -2.37803e+06 480   60 480 2490
441      -721044 380 1560 380   0
442  1.84847e+06 380 1560 380   0
443       945618 480   60 480 2490
444 -2.37092e+06 480   60 480 2490
445      -735042 380 1560 380   0
446  1.84295e+06 380 1560 380   0
447       934495 480   60 480 2490
448 -2.37533e+06 480   60 480 2490
449      -726396 380 1560 380   0
450  1.84638e+06 380 1560 380   0
451       952483 480   60 480 2490
452 -2.36817e+06 480   60 480 2490
453      -740378 380 1560 380   0
454  1.84081e+06 380 1560 380   0
455       941372 480   60 480 2490
456 -2.37261e+06 480   60 480 2490
457      -731742 380 1560 380   0
458  1.84427e+06 380 1560 380   0
459       930240 480   60 480 2490
460   -2.377e+06 480   60 480 2490
461      -723089 380 1560 380   0
462  1.84767e+06 380 1560 380   0
463       948241 480   60 480 2490
464 -2.36988e+06 480   60 480 2490
465      -737081 380 1560 380   0
466  1.84214e+06 380 1560 380   0
467       937122 480   60 480 2490
468 -2.37429e+06 480   60 480 2490
469      -728438 380 1560 380   0
470  1.84557e+06 380 1560 380   0
471       925983 480   60 480 2490
472 -2.37866e+06 480   60 480 2490
473      -719779 380 1560 380   0
474  1.84897e+06 380 1560 380   0
475       943997 480   60 480 2490
476 -2.37157e+06 480   60 480 2490
477      -733782 380 1560 380   0
478  1.84345e+06 380 1560 380   0
479       932870 480   60 480 2490
480 -2.37597e+06 480   60 480 2490
481      -725133 380 1560 380   0
482  1.84687e+06 380 1560 380   0
483       950863 480   60 480 2490
484 -2.36883e+06 480   60 480 2490
485      -739119 380 1560 380   0
486  1.84132e+06 380 1560 380   0
487       939749 480   60 480 2490
488 -2.37326e+06 480   60 480 2490
489      -730480 380 1560 380   0
490  1.84477e+06 380 1560 380   0
491       928614 480   60 480 2490
492 -2.37764e+06 480   60 480 2490
493      -721825 380 1560 380   0
494  1.84817e+06 380 1560 380   0
495       946620 480   60 480 2490
496 -2.37052e+06 480   60 480 2490
497      -735821 380 1560 380   0
498  1.84264e+06 380 1560 380   0
499       935498 480   60 480 2490
500 -2.37494e+06 480   60 480 2490
501      -727176 380 1560 380   0
502  1.84607e+06 380 1560 380   0
503       953484 480   60 480 2490
504 -2.36777e+06 480   60 480 2490
505      -741156 380 1560 380   0
506   1.8405e+06 380 1560 380   0
507       942375 480   60 480 2490
508 -2.37221e+06 480   60 480 2490
509      -732521 380 1560 380   0
510  1.84396e+06 380 1560 380   0
511       931245 480   60 480 2490
512 -2.37661e+06 480   60 480 2490
513      -723870 380 1560 380   0
514  1.84737e+06 380 1560 380   0
515       949243 480   60 480 2490
516 -2.36947e+06 480   60 480 2490
517      -737860 380 1560 380   0
518  1.84183e+06 380 1560 380   0
519       938126 480   60 480 2490
520  -2.3739e+06 480   60 480 2490
521      -729218 380 1560 380   0
522  1.84526e+06 380 1560 380   0
523       926988 480   60 480 2490
524 -2.37827e+06 480   60 480 2490
525      -720561 380 1560 380   0
526  1.84866e+06 380 1560 380   0
527       944999 480   60 480 2490
528 -2.37117e+06 480   60 480 2490
529      -734561 380 1560 380   0
530  1.84314e+06 380 1560 380   0
531       933874 480   60 480 2490
532 -2.37557e+06 480   60 480 2490
533      -725913 380 1560 380   0
534  1.84657e+06 380 1560 380   0
535       951864 480   60 480 2490
536 -2.36842e+06 480   60 480 2490
537      -739897 380 1560 380   0
538  1.84101e+06 380 1560 380   0
539       940752 480   60 480 2490
540 -2.37286e+06 480   60 480 2490
541      -731260 380 1560 380   0
542  1.84446e+06 380 1560 380   0
543       929619 480   60 480 2490
544 -2.37724e+06 480   60 480 2490
545      -722606 380 1560 380   0
546  1.84786e+06 380 1560 380   0
547       947622 480   60 480 2490
548 -2.37012e+06 480   60 480 2490
549      -736600 380 1560 380   0
550  1.84233e+06 380 1560 380   0
551       936502 480   60 480 2490
552 -2.37454e+06 480   60 480 2490
553      -727956 380 1560 380   0
554  1.84576e+06 380 1560 380   0
555       925361 480   60 480 2490
556  -2.3789e+06 480   60 480 2490
557      -719296 380 1560 380   0
558  1.84915e+06 380 1560 380   0
559       943377 480   60 480 2490
560 -2.37182e+06 480   60 480 2490
561      -733300 380 1560 380   0
562  1.84365e+06 380 1560 380   0
563       932249 480   60 480 2490
564 -2.37621e+06 480   60 480 2490
565      -724650 380 1560 380   0
566  1.84706e+06 380 1560 380   0
567       950244 480   60 480 2490
568 -2.36907e+06 480   60 480 2490
