# Pulseq sequence file
# Created by MATLAB mr toolbox

[VERSION]
major 1
minor 3
revision 1

[DEFINITIONS]
FOV 0.256 0.256 0.256 
Name NaN 
TotalDuration 2.599 

# Format of blocks:
#  #  D RF  GX  GY  GZ ADC EXT
[BLOCKS]
   1  1  1   2   3   1  0  0
   2  2  0   4   5   6  0  0
   3  1  2   8   9   7  0  0
   4  2  0  10  11  12  0  0
   5  1  3  14  15  13  0  0
   6  2  0  16  17  18  0  0
   7  1  4  20  21  19  0  0
   8  2  0  22  23  24  0  0
   9  1  5  26  27  25  0  0
  10  2  0  28  29  30  0  0
  11  1  6  32  33  31  0  0
  12  2  0  34  35  36  1  0
  13  1  7  37  38  31  0  0
  14  2  0  39  40  36  2  0
  15  1  8  41  42  31  0  0
  16  2  0  43  44  36  3  0
  17  1  9  45  46  31  0  0
  18  2  0  47  48  36  4  0
  19  1 10  49  50  31  0  0
  20  2  0  51  52  36  5  0
  21  1  6  53  54  31  0  0
  22  2  0  55  56  36  1  0
  23  1 11  57  58  31  0  0
  24  2  0  59  60  36  6  0
  25  1 12  61  62  31  0  0
  26  2  0  63  64  36  7  0
  27  1 13  65  66  31  0  0
  28  2  0  67  68  36  8  0
  29  1 14  69  70  31  0  0
  30  2  0  71  72  36  9  0
  31  1  1  73  74  31  0  0
  32  2  0  75  76  36 10  0
  33  1 15  77  78  31  0  0
  34  2  0  79  80  36 11  0
  35  1 16  81  82  31  0  0
  36  2  0  83  84  36 12  0
  37  1 13  85  86  31  0  0
  38  2  0  87  88  36  8  0
  39  1 17  89  90  31  0  0
  40  2  0  91  92  36 13  0
  41  1  5  93  94  31  0  0
  42  2  0  95  96  36 14  0
  43  1 18  97  98  31  0  0
  44  2  0  99 100  36 15  0
  45  1 19 101 102  31  0  0
  46  2  0 103 104  36 16  0
  47  1  9 105 106  31  0  0
  48  2  0 107 108  36  4  0
  49  1 20 109 110  31  0  0
  50  2  0 111 112  36 17  0
  51  1 10 113 114  31  0  0
  52  2  0 115 116  36  5  0
  53  1 18 117 118  31  0  0
  54  2  0 119 120  36 15  0
  55  1 21 121 122  31  0  0
  56  2  0 123 124  36 18  0
  57  1  4 125 126  31  0  0
  58  2  0 127 128  36 19  0
  59  1 22 129 130  31  0  0
  60  2  0 131 132  36 20  0
  61  1 14 133 134  31  0  0
  62  2  0 135 136  36  9  0
  63  1 15 137 138  31  0  0
  64  2  0 139 140  36 11  0
  65  1 23 141 142  31  0  0
  66  2  0 143 144  36 21  0
  67  1  2 145 146  31  0  0
  68  2  0 147 148  36 22  0
  69  1 22 149 150  31  0  0
  70  2  0 151 152  36 20  0
  71  1 17 153 154  31  0  0
  72  2  0 155 156  36 13  0
  73  1 11 157 158  31  0  0
  74  2  0 159 160  36  6  0
  75  1 24 161 162  31  0  0
  76  2  0 163 164  36 23  0
  77  1  7 165 166  31  0  0
  78  2  0 167 168  36  2  0
  79  1 20 169 170  31  0  0
  80  2  0 171 172  36 17  0
  81  1 20 173 174  31  0  0
  82  2  0 175 176  36 17  0
  83  1  7 177 178  31  0  0
  84  2  0 179 180  36  2  0
  85  1 24 181 182  31  0  0
  86  2  0 183 184  36 23  0
  87  1 11 185 186  31  0  0
  88  2  0 187 188  36  6  0
  89  1 17 189 190  31  0  0
  90  2  0 191 192  36 13  0
  91  1 22 193 194  31  0  0
  92  2  0 195 196  36 20  0
  93  1  2 197 198  31  0  0
  94  2  0 199 200  36 22  0
  95  1 23 201 202  31  0  0
  96  2  0 203 204  36 21  0
  97  1 15 205 206  31  0  0
  98  2  0 207 208  36 11  0
  99  1 14 209 210  31  0  0
 100  2  0 211 212  36  9  0
 101  1 22 213 214  31  0  0
 102  2  0 215 216  36 20  0
 103  1  4 217 218  31  0  0
 104  2  0 219 220  36 19  0
 105  1 21 221 222  31  0  0
 106  2  0 223 224  36 18  0
 107  1 18 225 226  31  0  0
 108  2  0 227 228  36 15  0
 109  1 10 229 230  31  0  0
 110  2  0 231 232  36  5  0
 111  1 20 233 234  31  0  0
 112  2  0 235 236  36 17  0
 113  1  9 237 238  31  0  0
 114  2  0 239 240  36  4  0
 115  1 19 241 242  31  0  0
 116  2  0 243 244  36 16  0
 117  1 18 245 246  31  0  0
 118  2  0 247 248  36 15  0
 119  1  5 249 250  31  0  0
 120  2  0 251 252  36 14  0
 121  1 17 253 254  31  0  0
 122  2  0 255 256  36 13  0
 123  1 13 257 258  31  0  0
 124  2  0 259 260  36  8  0
 125  1 16 261 262  31  0  0
 126  2  0 263 264  36 12  0
 127  1 15 265 266  31  0  0
 128  2  0 267 268  36 11  0
 129  1  1 269 270  31  0  0
 130  2  0 271 272  36 10  0
 131  1 14 273 274  31  0  0
 132  2  0 275 276  36  9  0
 133  1 13 277 278  31  0  0
 134  2  0 279 280  36  8  0
 135  1 12 281 282  31  0  0
 136  2  0 283 284  36  7  0
 137  1 11 285 286  31  0  0
 138  2  0 287 288  36  6  0
 139  1  6 289 290  31  0  0
 140  2  0 291 292  36  1  0
 141  1 10 293 294  31  0  0
 142  2  0 295 296  36  5  0
 143  1  9 297 298  31  0  0
 144  2  0 299 300  36  4  0
 145  1  8 301 302  31  0  0
 146  2  0 303 304  36  3  0
 147  1  7 305 306  31  0  0
 148  2  0 307 308  36  2  0
 149  1  6 309 310  31  0  0
 150  2  0 311 312  36  1  0
 151  1  5 313 314  31  0  0
 152  2  0 315 316  36 14  0
 153  1  4 317 318  31  0  0
 154  2  0 319 320  36 19  0
 155  1  3 321 322  31  0  0
 156  2  0 323 324  36 24  0
 157  1  2 325 326  31  0  0
 158  2  0 327 328  36 22  0
 159  1  1 329 330  31  0  0
 160  2  0 331 332  36 10  0
 161  1  1 333 334  31  0  0
 162  2  0 335 336  36 10  0
 163  1  2 337 338  31  0  0
 164  2  0 339 340  36 22  0
 165  1  3 341 342  31  0  0
 166  2  0 343 344  36 24  0
 167  1  4 345 346  31  0  0
 168  2  0 347 348  36 19  0
 169  1  5 349 350  31  0  0
 170  2  0 351 352  36 14  0
 171  1  6 194  32  31  0  0
 172  2  0 196  34  36  1  0
 173  1  7 198  37  31  0  0
 174  2  0 200  39  36  2  0
 175  1  8 202  41  31  0  0
 176  2  0 204  43  36  3  0
 177  1  9 206  45  31  0  0
 178  2  0 208  47  36  4  0
 179  1 10 210  49  31  0  0
 180  2  0 212  51  36  5  0
 181  1  6 214  53  31  0  0
 182  2  0 216  55  36  1  0
 183  1 11 218  57  31  0  0
 184  2  0 220  59  36  6  0
 185  1 12 222  61  31  0  0
 186  2  0 224  63  36  7  0
 187  1 13 226  65  31  0  0
 188  2  0 228  67  36  8  0
 189  1 14 230  69  31  0  0
 190  2  0 232  71  36  9  0
 191  1  1 234  73  31  0  0
 192  2  0 236  75  36 10  0
 193  1 15 238  77  31  0  0
 194  2  0 240  79  36 11  0
 195  1 16 242  81  31  0  0
 196  2  0 244  83  36 12  0
 197  1 13 246  85  31  0  0
 198  2  0 248  87  36  8  0
 199  1 17 250  89  31  0  0
 200  2  0 252  91  36 13  0
 201  1  5 254  93  31  0  0
 202  2  0 256  95  36 14  0
 203  1 18 258  97  31  0  0
 204  2  0 260  99  36 15  0
 205  1 19 262 101  31  0  0
 206  2  0 264 103  36 16  0
 207  1  9 266 105  31  0  0
 208  2  0 268 107  36  4  0
 209  1 20 270 109  31  0  0
 210  2  0 272 111  36 17  0
 211  1 10 274 113  31  0  0
 212  2  0 276 115  36  5  0
 213  1 18 278 117  31  0  0
 214  2  0 280 119  36 15  0
 215  1 21 282 121  31  0  0
 216  2  0 284 123  36 18  0
 217  1  4 286 125  31  0  0
 218  2  0 288 127  36 19  0
 219  1 22 290 129  31  0  0
 220  2  0 292 131  36 20  0
 221  1 14 294 133  31  0  0
 222  2  0 296 135  36  9  0
 223  1 15 298 137  31  0  0
 224  2  0 300 139  36 11  0
 225  1 23 302 141  31  0  0
 226  2  0 304 143  36 21  0
 227  1  2 306 145  31  0  0
 228  2  0 308 147  36 22  0
 229  1 22 310 149  31  0  0
 230  2  0 312 151  36 20  0
 231  1 17 314 153  31  0  0
 232  2  0 316 155  36 13  0
 233  1 11 318 157  31  0  0
 234  2  0 320 159  36  6  0
 235  1 24 322 161  31  0  0
 236  2  0 324 163  36 23  0
 237  1  7 326 165  31  0  0
 238  2  0 328 167  36  2  0
 239  1 20 330 169  31  0  0
 240  2  0 332 171  36 17  0
 241  1 20 334 173  31  0  0
 242  2  0 336 175  36 17  0
 243  1  7 338 177  31  0  0
 244  2  0 340 179  36  2  0
 245  1 24 342 181  31  0  0
 246  2  0 344 183  36 23  0
 247  1 11 346 185  31  0  0
 248  2  0 348 187  36  6  0
 249  1 17 350 189  31  0  0
 250  2  0 352 191  36 13  0
 251  1 22 353 354   1  0  0
 252  2  0 355 356   6 20  0
 253  1  2 357 354   7  0  0
 254  2  0 358 356  12 22  0
 255  1 23 359 354  13  0  0
 256  2  0 360 356  18 21  0
 257  1 15 361 354  19  0  0
 258  2  0 362 356  24 11  0
 259  1 14 363 354  25  0  0
 260  2  0 364 356  30  9  0
 261  1 22 366 354 365  0  0
 262  2  0 367 356 368 20  0
 263  1  4 370 354 369  0  0
 264  2  0 371 356 372 19  0
 265  1 21 374 354 373  0  0
 266  2  0 375 356 376 18  0
 267  1 18 378 354 377  0  0
 268  2  0 379 356 380 15  0
 269  1 10 382 354 381  0  0
 270  2  0 383 356 384  5  0
 271  1 20 386 354 385  0  0
 272  2  0 387 356 388 17  0
 273  1  9 390 354 389  0  0
 274  2  0 391 356 392  4  0
 275  1 19 394 354 393  0  0
 276  2  0 395 356 396 16  0
 277  1 18 398 354 397  0  0
 278  2  0 399 356 400 15  0
 279  1  5 402 354 401  0  0
 280  2  0 403 356 404 14  0
 281  1 17 406 354 405  0  0
 282  2  0 407 356 408 13  0
 283  1 13 410 354 409  0  0
 284  2  0 411 356 412  8  0
 285  1 16 414 354 413  0  0
 286  2  0 415 356 416 12  0
 287  1 15 418 354 417  0  0
 288  2  0 419 356 420 11  0
 289  1  1 422 354 421  0  0
 290  2  0 423 356 424 10  0
 291  1 14 426 354 425  0  0
 292  2  0 427 356 428  9  0
 293  1 13 430 354 429  0  0
 294  2  0 431 356 432  8  0
 295  1 12 434 354 433  0  0
 296  2  0 435 356 436  7  0
 297  1 11 438 354 437  0  0
 298  2  0 439 356 440  6  0
 299  1  6 442 354 441  0  0
 300  2  0 443 356 444  1  0
 301  1 10 446 354 445  0  0
 302  2  0 447 356 448  5  0
 303  1  9 450 354 449  0  0
 304  2  0 451 356 452  4  0
 305  1  8 454 354 453  0  0
 306  2  0 455 356 456  3  0
 307  1  7 458 354 457  0  0
 308  2  0 459 356 460  2  0
 309  1  6 462 354 461  0  0
 310  2  0 463 356 464  1  0
 311  1  5 466 354 465  0  0
 312  2  0 467 356 468 14  0
 313  1  4 470 354 469  0  0
 314  2  0 471 356 472 19  0
 315  1  3 474 354 473  0  0
 316  2  0 475 356 476 24  0
 317  1  2 478 354 477  0  0
 318  2  0 479 356 480 22  0
 319  1  1 482 354 481  0  0
 320  2  0 483 356 484 10  0
 321  1  1 486 354 485  0  0
 322  2  0 487 356 488 10  0
 323  1  2 490 354 489  0  0
 324  2  0 491 356 492 22  0
 325  1  3 494 354 493  0  0
 326  2  0 495 356 496 24  0
 327  1  4 498 354 497  0  0
 328  2  0 499 356 500 19  0
 329  1  5 502 354 501  0  0
 330  2  0 503 356 504 14  0
 331  1  6 506 507 505  0  0
 332  2  0 508 509 510  1  0
 333  1  7 512 507 511  0  0
 334  2  0 513 509 514  2  0
 335  1  8 516 507 515  0  0
 336  2  0 517 509 518  3  0
 337  1  9 520 507 519  0  0
[RF]
1      97.4467 1 2 100 0 2.04204
2      97.4467 1 2 100 0 4.08407
3      97.4467 1 2 100 0 1.88496
4      97.4467 1 2 100 0 1.72788
5      97.4467 1 2 100 0 3.61283
6      97.4467 1 2 100 0 1.25664
7      97.4467 1 2 100 0 0.942478
8      97.4467 1 2 100 0 2.67035
9      97.4467 1 2 100 0 0.15708
10      97.4467 1 2 100 0 5.96903
11      97.4467 1 2 100 0 4.86947
12      97.4467 1 2 100 0 4.24115
13      97.4467 1 2 100 0 5.65487
14      97.4467 1 2 100 0 2.82743
15      97.4467 1 2 100 0 3.29867
16      97.4467 1 2 100 0 0.314159
17      97.4467 1 2 100 0 0.471239
18      97.4467 1 2 100 0 2.51327
19      97.4467 1 2 100 0 3.45575
20      97.4467 1 2 100 0 5.18363
21      97.4467 1 2 100 0 1.09956
22      97.4467 1 2 100 0 4.39823
23      97.4467 1 2 100 0 5.81195
24      97.4467 1 2 100 0 5.02655

# Format of arbitrary gradients:
# id amplitude shape_id delay
# ..      Hz/m     ....    us
[GRADIENTS]
1       605719 3 90
7  1.51131e+06 4 90
13       507108 5 90
19  1.31873e+06 6 90
25       421242 7 90
31      45885.8 8 90
365  1.14837e+06 9 90
369       338059 10 90
373  1.01505e+06 11 90
377       253536 12 90
381       891257 13 90
385       176581 14 90
389       789613 15 90
393       101889 16 90
397       679754 17 90
401  1.70424e+06 18 90
405       586717 19 90
409   1.4549e+06 20 90
413       488719 21 90
417  1.26955e+06 22 90
421       403145 23 90
425  1.12645e+06 24 90
429       315318 25 90
433       993940 26 90
437       236261 27 90
441       870898 28 90
445       159564 29 90
449       756342 30 90
453      85122.9 31 90
457       660430 32 90
461   1.6396e+06 33 90
465       558409 34 90
469  1.40083e+06 35 90
473       470331 36 90
477  1.24675e+06 37 90
481       379032 38 90
485  1.08368e+06 39 90
489       297778 40 90
493       955139 41 90
497       218987 42 90
501       850539 43 90
505       484047 44 90
511  1.26376e+06 45 90
515       398547 46 90
519  1.12087e+06 47 90
523       310862 48 90
527       988575 49 90
531       231872 50 90
535       865725 51 90
539       155241 52 90
543       751347 53 90
547      80862.8 54 90
551       655520 55 90
555      27412.3 56 90
559       553660 57 90
563   1.3948e+06 58 90
567       465658 59 90
571  1.24096e+06 60 90
575       374506 61 90
579  1.07821e+06 62 90
583       293322 63 90
587       949872 64 90
591       214598 65 90
595       845366 66 90
599       138224 67 90
603       731690 68 90
607      63167.7 69 90
611       625593 70 90
615      27412.3 71 90
619       534970 72 90
623  1.37105e+06 73 90
627       440170 74 90
631  1.19427e+06 75 90
635       356692 76 90
639   1.0567e+06 77 90
643       275782 78 90
647       929143 79 90
651       197324 80 90
655       810533 81 90
659       119425 82 90
663       699965 83 90
667  1.17442e+06 84 90
669       356367 85 90
671  1.24481e+06 86 90
673       539441 87 90
675  1.30915e+06 88 90
677       681173 89 90
679   1.3399e+06 90 90
681       805732 91 90
683  1.39139e+06 92 90
685       920282 93 90
687  1.43748e+06 94 90
689  1.00948e+06 95 90
691  1.44662e+06 96 90
693  1.11092e+06 97 90
695       142232 98 90
697  1.18593e+06 99 90
699       405560 100 90
701  1.25443e+06 101 90
703       570186 102 90
705  1.31701e+06 103 90
707       717881 104 90
709  1.37398e+06 105 90
711       826297 106 90
713   1.3958e+06 107 90
715       937920 108 90
717  1.44025e+06 109 90
719  1.04381e+06 110 90
721   1.4477e+06 111 90
723  1.12394e+06 112 90
725       222965 113 90
727  1.19693e+06 114 90
729       444624 115 90
731   1.2636e+06 116 90
733       608928 117 90
735  1.32443e+06 118 90
737       741577 119 90
739  1.37973e+06 120 90
741       861055 121 90
743  1.39981e+06 122 90
745       954826 123 90
1127       142548 124 90
1133       736685 125 90
1139      68356.7 126 90
1145       630421 127 90
1151  1.57783e+06 128 90
1157       539719 129 90
1163  1.37708e+06 130 90
1169       444768 131 90
1175  1.19995e+06 132 90
1181       361218 133 90
1187  1.06217e+06 134 90
1193       280238 135 90
1199       934410 136 90
1205       201713 137 90
1211       815615 138 90
1217       123685 139 90
1223       717028 140 90
1229      50842.7 141 90
1235       611420 142 90
1241  1.51874e+06 143 90
1247       521028 144 90
1253  1.32571e+06 145 90
1259       426671 146 90
1265  1.17759e+06 147 90
1271       343404 148 90
1277  1.02139e+06 149 90
1283       262698 150 90
1289       913680 151 90
1295       181686 152 90
1301       795614 153 90
1307       106919 154 90
1313       685551 155 90
1319   1.7122e+06 156 90
1325       592418 157 90
1331  1.46217e+06 158 90
1337       494236 159 90
1343  1.27639e+06 160 90
1349       408574 161 90
1355  1.13302e+06 162 90
1361       325590 163 90
1367  1.00027e+06 164 90
1373       241444 165 90
1379       877006 166 90
1385       164669 167 90
1391       762239 168 90
1397      90152.8 169 90
1403       666227 170 90
1409  1.64737e+06 171 90
1415       564016 172 90
1421  1.43791e+06 173 90
1427       475847 174 90
1433  1.25359e+06 175 90
1439       390477 176 90
1445   1.1111e+06 177 90
1451       303040 178 90
1457       979160 179 90
1463       224169 180 90
1469       856647 181 90
1475       147653 182 90
1481       742582 183 90
1487      73386.5 184 90
1493       636122 185 90
1499  1.58543e+06 186 90
1505       545326 187 90
1511  1.38421e+06 188 90
1517       457458 189 90
1523  1.20666e+06 190 90
1529       366562 191 90
1535  1.06862e+06 192 90
1541       285500 193 90
1547       940628 194 90
1553       206895 195 90
1559       821616 196 90
1565       130636 197 90
1571       722925 198 90
1577      55799.7 199 90
1583       617120 200 90
1589  1.52618e+06 201 90
1595       526635 202 90
1601  1.33269e+06 203 90
1607       432100 204 90
1613   1.1843e+06 205 90
1619       348748 206 90
1625  1.04711e+06 207 90
1631       267960 208 90
1637       919899 209 90
1643       186791 210 90
1649       801614 211 90
1655       111949 212 90
1661       691348 213 90
1667  1.72015e+06 214 90
1673       598118 215 90
1679  1.50139e+06 216 90
1685       499753 217 90
1691  1.30942e+06 218 90
1697       414003 219 90
1703   1.1396e+06 220 90
1709       330934 221 90
1715  1.00661e+06 222 90
1721       246626 223 90
1727       883113 224 90
1733       169774 225 90
1739       781612 226 90
1745      95182.7 227 90
1751       672025 228 90
1757  1.65515e+06 229 90
1763       569623 230 90
1769  1.44519e+06 231 90
1775       481364 232 90
1781  1.26043e+06 233 90
1787       395906 234 90
1793  1.11768e+06 235 90
1799       308302 236 90
1805       985494 237 90
1811       229352 238 90
1817       862754 239 90
1823       152758 240 90
1829       748479 241 90
1835      78416.4 242 90
1841       652701 243 90
1847  1.59303e+06 244 90
1853       550933 245 90
1859  1.39133e+06 246 90
1865       462975 247 90
1871  1.21336e+06 248 90
1877       371906 249 90
1883  1.07508e+06 250 90
1889       290762 251 90
1895       946847 252 90
1901       212077 253 90
1907       827616 254 90
1913       135741 255 90
1919       728822 256 90
1925      60756.7 257 90
1931       622821 258 90
1937  1.56769e+06 259 90
1943       532243 260 90
1949  1.33967e+06 261 90
1955       437529 262 90
1960  1.19101e+06 263 90
1966       354092 264 90
1972  1.05356e+06 265 90
1978       273222 266 90
1984       926118 267 90
1990       194803 268 90
1996       807615 269 90
2002       116979 270 90
2008       697146 271 90
2014  1.76925e+06 272 90
2020       603819 273 90
2026  1.50883e+06 274 90
2032       505269 275 90
2038   1.3164e+06 276 90
2044       419432 277 90
2050  1.14618e+06 278 90
2056       336278 279 90
2062  1.01294e+06 280 90
2068       251808 281 90
2074       889221 282 90
2080       174879 283 90

# Format of trapezoid gradients:
# id amplitude rise flat fall delay
# ..      Hz/m   us   us   us    us
[TRAP]
 2       578289 250  200 250 2400
 3  1.27649e+06 250  200 250 2400
 4      -594404 260  980 260   0
 5 -1.31206e+06 260  980 260   0
 6       757813 260  980 260   0
 8       380614 250  200 250 2400
 9      -433916 250  200 250 2400
10      -391221 260  980 260   0
11       446007 260  980 260   0
12  1.51563e+06 260  980 260   0
14 -1.39083e+06 250  200 250 2400
15      -422142 250  200 250 2400
16  1.42959e+06 260  980 260   0
17       433906 260  980 260   0
18       645833 260  980 260   0
20       104463 250  200 250 2400
21       794764 250  200 250 2400
22      -107374 260  980 260   0
23      -816912 260  980 260   0
24  1.40365e+06 260  980 260   0
26  1.27051e+06 250  200 250 2400
27      -789592 250  200 250 2400
28 -1.30591e+06 260  980 260   0
29       811595 260  980 260   0
30       533854 260  980 260   0
32       653437 250  200 250 2400
33  1.44237e+06 250  200 250 2400
34      -671646 260  980 260   0
35 -1.48256e+06 260  980 260   0
36   9.9662e-11 260  980 260   0
37  1.04418e+06 250  200 250 2400
38 -1.19041e+06 250  200 250 2400
39 -1.07328e+06 260  980 260   0
40  1.22359e+06 260  980 260   0
41 -1.51522e+06 250  200 250 2400
42      -459897 250  200 250 2400
43  1.55745e+06 260  980 260   0
44       472713 260  980 260   0
45       206357 250  200 250 2400
46  1.56997e+06 250  200 250 2400
47      -212107 260  980 260   0
48 -1.61372e+06 260  980 260   0
49  1.34491e+06 250  200 250 2400
50      -835832 250  200 250 2400
51 -1.38239e+06 260  980 260   0
52       859124 260  980 260   0
53 -1.31634e+06 250  200 250 2400
54      -880147 250  200 250 2400
55  1.35302e+06 260  980 260   0
56       904674 260  980 260   0
57      -258514 250  200 250 2400
58  1.56223e+06 250  200 250 2400
59       265718 260  980 260   0
60 -1.60577e+06 260  980 260   0
61  1.52969e+06 250  200 250 2400
62      -409194 250  200 250 2400
63 -1.57232e+06 260  980 260   0
64       420596 260  980 260   0
65 -1.00397e+06 250  200 250 2400
66 -1.22452e+06 250  200 250 2400
67  1.03195e+06 260  980 260   0
68  1.25864e+06 260  980 260   0
69      -701098 250  200 250 2400
70  1.41981e+06 250  200 250 2400
71       720635 260  980 260   0
72 -1.45938e+06 260  980 260   0
73   1.5826e+06 250  200 250 2400
74      52721.5 250  200 250 2400
75  -1.6267e+06 260  980 260   0
76     -54190.6 260  980 260   0
77      -605051 250  200 250 2400
78 -1.46332e+06 250  200 250 2400
79       621912 260  980 260   0
80   1.5041e+06 260  980 260   0
81 -1.08324e+06 250  200 250 2400
82  1.15499e+06 250  200 250 2400
83  1.11343e+06 260  980 260   0
84 -1.18717e+06 260  980 260   0
85  1.49907e+06 250  200 250 2400
86       510091 250  200 250 2400
87 -1.54084e+06 260  980 260   0
88      -524306 260  980 260   0
89      -153970 250  200 250 2400
90 -1.57597e+06 250  200 250 2400
91       158261 260  980 260   0
92  1.61989e+06 260  980 260   0
93 -1.37199e+06 250  200 250 2400
94       790590 250  200 250 2400
95  1.41023e+06 260  980 260   0
96      -812621 260  980 260   0
97   1.2863e+06 250  200 250 2400
98       923486 250  200 250 2400
99 -1.32215e+06 260  980 260   0
100      -949220 260  980 260   0
101       310385 250  200 250 2400
102 -1.55276e+06 250  200 250 2400
103      -319034 260  980 260   0
104  1.59603e+06 260  980 260   0
105 -1.54247e+06 250  200 250 2400
106       358036 250  200 250 2400
107  1.58545e+06 260  980 260   0
108      -368013 260  980 260   0
109       962644 250  200 250 2400
110  1.25727e+06 250  200 250 2400
111      -989470 260  980 260   0
112  -1.2923e+06 260  980 260   0
113       747981 250  200 250 2400
114 -1.39568e+06 250  200 250 2400
115      -768825 260  980 260   0
116  1.43457e+06 260  980 260   0
117 -1.57997e+06 250  200 250 2400
118      -105384 250  200 250 2400
119    1.624e+06 260  980 260   0
120       108321 260  980 260   0
121       555995 250  200 250 2400
122  1.48266e+06 250  200 250 2400
123      -571489 260  980 260   0
124 -1.52397e+06 260  980 260   0
125  1.12109e+06 250  200 250 2400
126 -1.11828e+06 250  200 250 2400
127 -1.15234e+06 260  980 260   0
128  1.14944e+06 260  980 260   0
129 -1.48126e+06 250  200 250 2400
130      -559720 250  200 250 2400
131  1.52253e+06 260  980 260   0
132       575317 260  980 260   0
133       101413 250  200 250 2400
134  1.58023e+06 250  200 250 2400
135      -104239 260  980 260   0
136 -1.62426e+06 260  980 260   0
137  1.39756e+06 250  200 250 2400
138      -744471 250  200 250 2400
139  -1.4365e+06 260  980 260   0
140       765217 260  980 260   0
141 -1.25484e+06 250  200 250 2400
142      -965801 250  200 250 2400
143  1.28981e+06 260  980 260   0
144       992715 260  980 260   0
145      -361911 250  200 250 2400
146  1.54157e+06 250  200 250 2400
147       371997 260  980 260   0
148 -1.58452e+06 260  980 260   0
149  1.55354e+06 250  200 250 2400
150      -306481 250  200 250 2400
151 -1.59683e+06 260  980 260   0
152       315022 260  980 260   0
153      -920250 250  200 250 2400
154 -1.28862e+06 250  200 250 2400
155       945894 260  980 260   0
156  1.32453e+06 260  980 260   0
157      -794036 250  200 250 2400
158     1.37e+06 250  200 250 2400
159       816163 260  980 260   0
160 -1.40818e+06 260  980 260   0
161  1.57558e+06 250  200 250 2400
162       157931 250  200 250 2400
163 -1.61949e+06 260  980 260   0
164      -162332 260  980 260   0
165      -506322 250  200 250 2400
166 -1.50035e+06 250  200 250 2400
167       520432 260  980 260   0
168  1.54216e+06 260  980 260   0
169 -1.15771e+06 250  200 250 2400
170  1.08033e+06 250  200 250 2400
171  1.18997e+06 260  980 260   0
172 -1.11044e+06 260  980 260   0
173   1.4618e+06 250  200 250 2400
174       608727 250  200 250 2400
175 -1.50253e+06 260  980 260   0
176      -625690 260  980 260   0
177     -48743.8 250  200 250 2400
178 -1.58273e+06 250  200 250 2400
179      50102.1 260  980 260   0
180  1.62683e+06 260  980 260   0
181 -1.42157e+06 250  200 250 2400
182       697527 250  200 250 2400
183  1.46118e+06 260  980 260   0
184      -716965 260  980 260   0
185  1.22199e+06 250  200 250 2400
186  1.00705e+06 250  200 250 2400
187 -1.25604e+06 260  980 260   0
188 -1.03511e+06 260  980 260   0
189       413037 250  200 250 2400
190 -1.52866e+06 250  200 250 2400
191      -424547 260  980 260   0
192  1.57126e+06 260  980 260   0
193      -653437 250  200 250 2400
194 -1.44237e+06 250  200 250 2400
195       671646 260  980 260   0
196  1.48256e+06 260  980 260   0
197 -1.04418e+06 250  200 250 2400
198  1.19041e+06 250  200 250 2400
199  1.07328e+06 260  980 260   0
200 -1.22359e+06 260  980 260   0
201  1.51522e+06 250  200 250 2400
202       459897 250  200 250 2400
203 -1.55745e+06 260  980 260   0
204      -472713 260  980 260   0
205      -206357 250  200 250 2400
206 -1.56997e+06 250  200 250 2400
207       212107 260  980 260   0
208  1.61372e+06 260  980 260   0
209 -1.34491e+06 250  200 250 2400
210       835832 250  200 250 2400
211  1.38239e+06 260  980 260   0
212      -859124 260  980 260   0
213  1.31634e+06 250  200 250 2400
214       880147 250  200 250 2400
215 -1.35302e+06 260  980 260   0
216      -904674 260  980 260   0
217       258514 250  200 250 2400
218 -1.56223e+06 250  200 250 2400
219      -265718 260  980 260   0
220  1.60577e+06 260  980 260   0
221 -1.52969e+06 250  200 250 2400
222       409194 250  200 250 2400
223  1.57232e+06 260  980 260   0
224      -420596 260  980 260   0
225  1.00397e+06 250  200 250 2400
226  1.22452e+06 250  200 250 2400
227 -1.03195e+06 260  980 260   0
228 -1.25864e+06 260  980 260   0
229       701098 250  200 250 2400
230 -1.41981e+06 250  200 250 2400
231      -720635 260  980 260   0
232  1.45938e+06 260  980 260   0
233  -1.5826e+06 250  200 250 2400
234     -52721.5 250  200 250 2400
235   1.6267e+06 260  980 260   0
236      54190.6 260  980 260   0
237       605051 250  200 250 2400
238  1.46332e+06 250  200 250 2400
239      -621912 260  980 260   0
240  -1.5041e+06 260  980 260   0
241  1.08324e+06 250  200 250 2400
242 -1.15499e+06 250  200 250 2400
243 -1.11343e+06 260  980 260   0
244  1.18717e+06 260  980 260   0
245 -1.49907e+06 250  200 250 2400
246      -510091 250  200 250 2400
247  1.54084e+06 260  980 260   0
248       524306 260  980 260   0
249       153970 250  200 250 2400
250  1.57597e+06 250  200 250 2400
251      -158261 260  980 260   0
252 -1.61989e+06 260  980 260   0
253  1.37199e+06 250  200 250 2400
254      -790590 250  200 250 2400
255 -1.41023e+06 260  980 260   0
256       812621 260  980 260   0
257  -1.2863e+06 250  200 250 2400
258      -923486 250  200 250 2400
259  1.32215e+06 260  980 260   0
260       949220 260  980 260   0
261      -310385 250  200 250 2400
262  1.55276e+06 250  200 250 2400
263       319034 260  980 260   0
264 -1.59603e+06 260  980 260   0
265  1.54247e+06 250  200 250 2400
266      -358036 250  200 250 2400
267 -1.58545e+06 260  980 260   0
268       368013 260  980 260   0
269      -962644 250  200 250 2400
270 -1.25727e+06 250  200 250 2400
271       989470 260  980 260   0
272   1.2923e+06 260  980 260   0
273      -747981 250  200 250 2400
274  1.39568e+06 250  200 250 2400
275       768825 260  980 260   0
276 -1.43457e+06 260  980 260   0
277  1.57997e+06 250  200 250 2400
278       105384 250  200 250 2400
279   -1.624e+06 260  980 260   0
280      -108321 260  980 260   0
281      -555995 250  200 250 2400
282 -1.48266e+06 250  200 250 2400
283       571489 260  980 260   0
284  1.52397e+06 260  980 260   0
285 -1.12109e+06 250  200 250 2400
286  1.11828e+06 250  200 250 2400
287  1.15234e+06 260  980 260   0
288 -1.14944e+06 260  980 260   0
289  1.48126e+06 250  200 250 2400
290       559720 250  200 250 2400
291 -1.52253e+06 260  980 260   0
292      -575317 260  980 260   0
293      -101413 250  200 250 2400
294 -1.58023e+06 250  200 250 2400
295       104239 260  980 260   0
296  1.62426e+06 260  980 260   0
297 -1.39756e+06 250  200 250 2400
298       744471 250  200 250 2400
299   1.4365e+06 260  980 260   0
300      -765217 260  980 260   0
301  1.25484e+06 250  200 250 2400
302       965801 250  200 250 2400
303 -1.28981e+06 260  980 260   0
304      -992715 260  980 260   0
305       361911 250  200 250 2400
306 -1.54157e+06 250  200 250 2400
307      -371997 260  980 260   0
308  1.58452e+06 260  980 260   0
309 -1.55354e+06 250  200 250 2400
310       306481 250  200 250 2400
311  1.59683e+06 260  980 260   0
312      -315022 260  980 260   0
313       920250 250  200 250 2400
314  1.28862e+06 250  200 250 2400
315      -945894 260  980 260   0
316 -1.32453e+06 260  980 260   0
317       794036 250  200 250 2400
318    -1.37e+06 250  200 250 2400
319      -816163 260  980 260   0
320  1.40818e+06 260  980 260   0
321 -1.57558e+06 250  200 250 2400
322      -157931 250  200 250 2400
323  1.61949e+06 260  980 260   0
324       162332 260  980 260   0
325       506322 250  200 250 2400
326  1.50035e+06 250  200 250 2400
327      -520432 260  980 260   0
328 -1.54216e+06 260  980 260   0
329  1.15771e+06 250  200 250 2400
330 -1.08033e+06 250  200 250 2400
331 -1.18997e+06 260  980 260   0
332  1.11044e+06 260  980 260   0
333  -1.4618e+06 250  200 250 2400
334      -608727 250  200 250 2400
335  1.50253e+06 260  980 260   0
336       625690 260  980 260   0
337      48743.8 250  200 250 2400
338  1.58273e+06 250  200 250 2400
339     -50102.1 260  980 260   0
340 -1.62683e+06 260  980 260   0
341  1.42157e+06 250  200 250 2400
342      -697527 250  200 250 2400
343 -1.46118e+06 260  980 260   0
344       716965 260  980 260   0
345 -1.22199e+06 250  200 250 2400
346 -1.00705e+06 250  200 250 2400
347  1.25604e+06 260  980 260   0
348  1.03511e+06 260  980 260   0
349      -413037 250  200 250 2400
350  1.52866e+06 250  200 250 2400
351       424547 260  980 260   0
352 -1.57126e+06 260  980 260   0
353 -1.40137e+06 250  200 250 2400
354           -0 250  200 250 2400
355  1.44042e+06 260  980 260   0
356            0 260  980 260   0
357      -577191 250  200 250 2400
358       593276 260  980 260   0
359 -1.45348e+06 250  200 250 2400
360  1.49399e+06 260  980 260   0
361      -801600 250  200 250 2400
