# Pulseq sequence file
# Created by MATLAB mr toolbox

[VERSION]
major 1
minor 3
revision 1

[DEFINITIONS]
FOV 0.256 0.256 0.256 
Name 3D_radial_stackOfStars 

# Format of blocks:
#  #  D RF  GX  GY  GZ ADC EXT
[BLOCKS]
  1  0  1   2   0   1  0  0
  2  1  0   4   0   3  0  0
  3  0  2   6   7   5  0  0
  4  1  0   9  10   8  0  0
  5  0  3  12  13  11  0  0
  6  1  0  15  16  14  0  0
  7  0  4  18  19  17  0  0
  8  1  0  21  22  20  0  0
  9  0  5  24  25  23  0  0
 10  1  0  27  28  26  0  0
 11  0  6   2   0   1  0  0
 12  1  0   4   0   3  1  0
 13  0  7   6   7   5  0  0
 14  1  0   9  10   8  2  0
 15  0  8  12  13  11  0  0
 16  1  0  15  16  14  3  0
 17  0  9  18  19  17  0  0
 18  1  0  21  22  20  4  0
 19  0 10  24  25  23  0  0
 20  1  0  27  28  26  5  0
 21  0  6  29  30   1  0  0
 22  1  0  31  32   3  1  0
 23  0 11  33  34   5  0  0
 24  1  0  35  36   8  6  0
 25  0 12  37  38  11  0  0
 26  1  0  39  40  14  7  0
 27  0 13  41  42  17  0  0
 28  1  0  43  44  20  8  0
 29  0 14  45  46  23  0  0
 30  1  0  47  48  26  9  0
 31  0  1  49  50   1  0  0
 32  1  0  51  52   3 10  0
 33  0 15  53  54   5  0  0
 34  1  0  55  56   8 11  0
 35  0 16  57  58  11  0  0
 36  1  0  59  60  14 12  0
 37  0 13  61  62  17  0  0
 38  1  0  63  64  20  8  0
 39  0 17  65  66  23  0  0
 40  1  0  67  68  26 13  0
 41  0  5  69  70   1  0  0
 42  1  0  71  72   3 14  0
 43  0 18  73  74   5  0  0
 44  1  0  75  76   8 15  0
 45  0 19  77  78  11  0  0
 46  1  0  79  80  14 16  0
 47  0  9  81  82  17  0  0
 48  1  0  83  84  20  4  0
 49  0 20  85  86  23  0  0
 50  1  0  87  88  26 17  0
 51  0 10  89  90   1  0  0
 52  1  0  91  92   3  5  0
 53  0 18  93  94   5  0  0
 54  1  0  95  96   8 15  0
 55  0 21  97  98  11  0  0
 56  1  0  99 100  14 18  0
 57  0  4 101 102  17  0  0
 58  1  0 103 104  20 19  0
 59  0 22 105 106  23  0  0
 60  1  0 107 108  26 20  0
 61  0 14 109 110   1  0  0
 62  1  0 111 112   3  9  0
 63  0 15 113 114   5  0  0
 64  1  0 115 116   8 11  0
 65  0 23 117 118  11  0  0
 66  1  0 119 120  14 21  0
 67  0  2 121 122  17  0  0
 68  1  0 123 124  20 22  0
 69  0 22 125 126  23  0  0
 70  1  0 127 128  26 20  0
 71  0 17 129 130   1  0  0
 72  1  0 131 132   3 13  0
 73  0 11 133 134   5  0  0
 74  1  0 135 136   8  6  0
 75  0 24 137 138  11  0  0
 76  1  0 139 140  14 23  0
 77  0  7 141 142  17  0  0
 78  1  0 143 144  20  2  0
 79  0 20 145 146  23  0  0
 80  1  0 147 148  26 17  0
 81  0 20 149 150   1  0  0
 82  1  0 151 152   3 17  0
 83  0  7 153 154   5  0  0
 84  1  0 155 156   8  2  0
 85  0 24 157 158  11  0  0
 86  1  0 159 160  14 23  0
 87  0 11 161 162  17  0  0
 88  1  0 163 164  20  6  0
 89  0 17 165 166  23  0  0
 90  1  0 167 168  26 13  0
 91  0 22 169 170   1  0  0
 92  1  0 171 172   3 20  0
 93  0  2 173 174   5  0  0
 94  1  0 175 176   8 22  0
 95  0 23 177 178  11  0  0
 96  1  0 179 180  14 21  0
 97  0 15 181 182  17  0  0
 98  1  0 183 184  20 11  0
 99  0 14 185 186  23  0  0
100  1  0 187 188  26  9  0
101  0 22 189 190   1  0  0
102  1  0 191 192   3 20  0
103  0  4 193 194   5  0  0
104  1  0 195 196   8 19  0
105  0 21 197 198  11  0  0
106  1  0 199 200  14 18  0
107  0 18 201 202  17  0  0
108  1  0 203 204  20 15  0
109  0 10 205 206  23  0  0
110  1  0 207 208  26  5  0
111  0 20 209 210   1  0  0
112  1  0 211 212   3 17  0
113  0  9 213 214   5  0  0
114  1  0 215 216   8  4  0
115  0 19 217 218  11  0  0
116  1  0 219 220  14 16  0
117  0 18 221 222  17  0  0
118  1  0 223 224  20 15  0
119  0  5 225 226  23  0  0
120  1  0 227 228  26 14  0
121  0 17 229 230   1  0  0
122  1  0 231 232   3 13  0
123  0 13 233 234   5  0  0
124  1  0 235 236   8  8  0
125  0 16 237 238  11  0  0
126  1  0 239 240  14 12  0
127  0 15 241 242  17  0  0
128  1  0 243 244  20 11  0
129  0  1 245 246  23  0  0
130  1  0 247 248  26 10  0
131  0 14 249 250   1  0  0
132  1  0 251 252   3  9  0
133  0 13 253 254   5  0  0
134  1  0 255 256   8  8  0
135  0 12 257 258  11  0  0
136  1  0 259 260  14  7  0
137  0 11 261 262  17  0  0
138  1  0 263 264  20  6  0
139  0  6 265 266  23  0  0
140  1  0 267 268  26  1  0
141  0 10 269 270   1  0  0
142  1  0 271 272   3  5  0
143  0  9 273 274   5  0  0
144  1  0 275 276   8  4  0
145  0  8 277 278  11  0  0
146  1  0 279 280  14  3  0
147  0  7 281 282  17  0  0
148  1  0 283 284  20  2  0
149  0  6 285 286  23  0  0
150  1  0 287 288  26  1  0
151  0  5 289 290   1  0  0
152  1  0 291 292   3 14  0
153  0  4 293 294   5  0  0
154  1  0 295 296   8 19  0
155  0  3 297 298  11  0  0
156  1  0 299 300  14 24  0
157  0  2 301 302  17  0  0
158  1  0 303 304  20 22  0
159  0  1 305 306  23  0  0
160  1  0 307 308  26 10  0

# Format of RF events:
# id amplitude mag_id phase_id delay freq phase
# ..        Hz   ....     ....    us   Hz   rad
[RF]
1      85.1875 1 2 100 0 2.04204
2      85.1875 1 2 100 0 4.08407
3      85.1875 1 2 100 0 1.88496
4      85.1875 1 2 100 0 1.72788
5      85.1875 1 2 100 0 3.61283
6      85.1875 1 2 100 0 1.25664
7      85.1875 1 2 100 0 0.942478
8      85.1875 1 2 100 0 2.67035
9      85.1875 1 2 100 0 0.15708
10      85.1875 1 2 100 0 5.96903
11      85.1875 1 2 100 0 4.86947
12      85.1875 1 2 100 0 4.24115
13      85.1875 1 2 100 0 5.65487
14      85.1875 1 2 100 0 2.82743
15      85.1875 1 2 100 0 3.29867
16      85.1875 1 2 100 0 0.314159
17      85.1875 1 2 100 0 0.471239
18      85.1875 1 2 100 0 2.51327
19      85.1875 1 2 100 0 3.45575
20      85.1875 1 2 100 0 5.18363
21      85.1875 1 2 100 0 1.09956
22      85.1875 1 2 100 0 4.39823
23      85.1875 1 2 100 0 5.81195
24      85.1875 1 2 100 0 5.02655

# Format of arbitrary gradients:
# id amplitude shape_id delay
# ..      Hz/m     ....    us
[GRADIENTS]
1       229492 3 90
5       123291 4 90
11      74462.9 5 90
17      22786.5 6 90
23      20616.3 7 90

# Format of trapezoid gradients:
# id amplitude rise flat fall delay
# ..      Hz/m   us   us   us    us
[TRAP]
 2 -2.09291e+06 340    0 340   0
 3     -97656.2  20   80  20 1050
 4   1.6276e+06 260  790 260   0
 6  -2.0754e+06 340    0 340   0
 7      -270152 340    0 340   0
 8      -151910  30   60  30 1050
 9  1.61399e+06 260  790 260   0
10       210090 260  790 260   0
12 -2.09035e+06 340    0 340   0
13      -103435 340    0 340   0
14      -219727  40   40  40 1050
15  1.62562e+06 260  790 260   0
16      80439.2 260  790 260   0
18 -2.05951e+06 340    0 340   0
19      -372391 340    0 340   0
20       219727  40   40  40 1050
21  1.60163e+06 260  790 260   0
22       289600 260  790 260   0
24 -2.08268e+06 340    0 340   0
25      -206618 340    0 340   0
26       151910  30   60  30 1050
27  1.61965e+06 260  790 260   0
28       160682 260  790 260   0
29       758417 340    0 340   0
30 -1.95066e+06 340    0 340   0
31      -589803 260  790 260   0
32  1.51698e+06 260  790 260   0
33  1.00386e+06 340    0 340   0
34 -1.83644e+06 340    0 340   0
35      -780680 260  790 260   0
36  1.42816e+06 260  790 260   0
37       853895 340    0 340   0
38 -1.91079e+06 340    0 340   0
39      -664054 260  790 260   0
40  1.48598e+06 260  790 260   0
41   1.0934e+06 340    0 340   0
42 -1.78459e+06 340    0 340   0
43      -850308 260  790 260   0
44  1.38783e+06 260  790 260   0
45       947287 340    0 340   0
46 -1.86626e+06 340    0 340   0
47      -736682 260  790 260   0
48  1.45134e+06 260  790 260   0
49  1.54324e+06 340    0 340   0
50  1.41374e+06 340    0 340   0
51 -1.20014e+06 260  790 260   0
52 -1.09943e+06 260  790 260   0
53  1.34785e+06 340    0 340   0
54  1.60111e+06 340    0 340   0
55 -1.04819e+06 260  790 260   0
56 -1.24515e+06 260  790 260   0
57  1.47149e+06 340    0 340   0
58  1.48828e+06 340    0 340   0
59 -1.14434e+06 260  790 260   0
60  -1.1574e+06 260  790 260   0
61  1.26707e+06 340    0 340   0
62  1.66577e+06 340    0 340   0
63      -985372 260  790 260   0
64 -1.29543e+06 260  790 260   0
65  1.39614e+06 340    0 340   0
66  1.55919e+06 340    0 340   0
67 -1.08574e+06 260  790 260   0
68 -1.21254e+06 260  790 260   0
69 -1.87688e+06 340    0 340   0
70       926051 340    0 340   0
71  1.45961e+06 260  790 260   0
72      -720168 260  790 260   0
73 -1.98072e+06 340    0 340   0
74       676036 340    0 340   0
75  1.54036e+06 260  790 260   0
76      -525737 260  790 260   0
77 -1.92036e+06 340    0 340   0
78       832160 340    0 340   0
79  1.49342e+06 260  790 260   0
80      -647151 260  790 260   0
81 -2.01171e+06 340    0 340   0
82       577320 340    0 340   0
83  1.56446e+06 260  790 260   0
84      -448968 260  790 260   0
85 -1.95914e+06 340    0 340   0
86       736236 340    0 340   0
87  1.52357e+06 260  790 260   0
88      -572553 260  790 260   0
89      -182974 340    0 340   0
90 -2.08489e+06 340    0 340   0
91       142294 260  790 260   0
92  1.62137e+06 260  790 260   0
93        87674 340    0 340   0
94 -2.09107e+06 340    0 340   0
95       -68182 260  790 260   0
96  1.62618e+06 260  790 260   0
97     -79711.1 340    0 340   0
98 -2.09139e+06 340    0 340   0
99      61989.4 260  790 260   0
100  1.62642e+06 260  790 260   0
101       190911 340    0 340   0
102 -2.08418e+06 340    0 340   0
103      -148467 260  790 260   0
104  1.62082e+06 260  790 260   0
105      23746.5 340    0 340   0
106 -2.09277e+06 340    0 340   0
107     -18467.1 260  790 260   0
108   1.6275e+06 260  790 260   0
109  2.00949e+06 340    0 340   0
110       584976 340    0 340   0
111 -1.56274e+06 260  790 260   0
112      -454921 260  790 260   0
113  1.91717e+06 340    0 340   0
114       839466 340    0 340   0
115 -1.49094e+06 260  790 260   0
116      -652833 260  790 260   0
117  1.97813e+06 340    0 340   0
118       683574 340    0 340   0
119 -1.53834e+06 260  790 260   0
120      -531599 260  790 260   0
121  1.87334e+06 340    0 340   0
122       933191 340    0 340   0
123 -1.45685e+06 260  790 260   0
124      -725720 260  790 260   0
125  1.94193e+06 340    0 340   0
126       780501 340    0 340   0
127 -1.51019e+06 260  790 260   0
128      -606977 260  790 260   0
129 -1.27341e+06 340    0 340   0
130  1.66093e+06 340    0 340   0
131       990298 260  790 260   0
132 -1.29167e+06 260  790 260   0
133 -1.47715e+06 340    0 340   0
134  1.48267e+06 340    0 340   0
135  1.14874e+06 260  790 260   0
136 -1.15303e+06 260  790 260   0
137 -1.35394e+06 340    0 340   0
138  1.59597e+06 340    0 340   0
139  1.05292e+06 260  790 260   0
140 -1.24115e+06 260  790 260   0
141 -1.54862e+06 340    0 340   0
142  1.40785e+06 340    0 340   0
143  1.20432e+06 260  790 260   0
144 -1.09485e+06 260  790 260   0
145 -1.43116e+06 340    0 340   0
146   1.5271e+06 340    0 340   0
147  1.11298e+06 260  790 260   0
148 -1.18759e+06 260  790 260   0
149 -1.08659e+06 340    0 340   0
150 -1.78874e+06 340    0 340   0
151       845017 260  790 260   0
152  1.39106e+06 260  790 260   0
153      -846613 340    0 340   0
154 -1.91403e+06 340    0 340   0
155       658391 260  790 260   0
156  1.48849e+06 260  790 260   0
157      -996862 340    0 340   0
158 -1.84025e+06 340    0 340   0
159       775236 260  790 260   0
160  1.43112e+06 260  790 260   0
161      -750984 340    0 340   0
162 -1.95353e+06 340    0 340   0
163       584022 260  790 260   0
164  1.51921e+06 260  790 260   0
165      -904696 340    0 340   0
166 -1.88727e+06 340    0 340   0
167       703560 260  790 260   0
168  1.46768e+06 260  790 260   0
169  2.06091e+06 340    0 340   0
170      -364547 340    0 340   0
171 -1.60272e+06 260  790 260   0
172       283499 260  790 260   0
173  2.09073e+06 340    0 340   0
174     -95475.1 340    0 340   0
175 -1.62591e+06 260  790 260   0
176      74248.7 260  790 260   0
177  2.07641e+06 340    0 340   0
178      -262247 340    0 340   0
179 -1.61478e+06 260  790 260   0
180       203943 260  790 260   0
181  2.09289e+06 340    0 340   0
182      7969.23 340    0 340   0
183 -1.62759e+06 260  790 260   0
184     -6197.48 260  790 260   0
185  2.08684e+06 340    0 340   0
186      -159307 340    0 340   0
187 -1.62288e+06 260  790 260   0
188       123889 260  790 260   0
189      -407054 340    0 340   0
190  2.05294e+06 340    0 340   0
191       316556 260  790 260   0
192 -1.59652e+06 260  790 260   0
193      -668642 340    0 340   0
194  1.98322e+06 340    0 340   0
195       519987 260  790 260   0
196 -1.54231e+06 260  790 260   0
197      -508017 340    0 340   0
198  2.03032e+06 340    0 340   0
199       395073 260  790 260   0
200 -1.57893e+06 260  790 260   0
201      -765839 340    0 340   0
202  1.94776e+06 340    0 340   0
203       595575 260  790 260   0
204 -1.51472e+06 260  790 260   0
205      -607738 340    0 340   0
206  2.00273e+06 340    0 340   0
207       472623 260  790 260   0
208 -1.55747e+06 260  790 260   0
209  -1.7659e+06 340    0 340   0
210 -1.12332e+06 340    0 340   0
211   1.3733e+06 260  790 260   0
212       873581 260  790 260   0
213 -1.60613e+06 340    0 340   0
214 -1.34187e+06 340    0 340   0
215  1.24905e+06 260  790 260   0
216  1.04354e+06 260  790 260   0
217 -1.70823e+06 340    0 340   0
218 -1.20922e+06 340    0 340   0
219  1.32845e+06 260  790 260   0
220       940384 260  790 260   0
221 -1.53785e+06 340    0 340   0
222  -1.4196e+06 340    0 340   0
223  1.19595e+06 260  790 260   0
224  1.10399e+06 260  790 260   0
225 -1.64638e+06 340    0 340   0
226 -1.29217e+06 340    0 340   0
227  1.28035e+06 260  790 260   0
228  1.00489e+06 260  790 260   0
229  1.68689e+06 340    0 340   0
230 -1.23881e+06 340    0 340   0
231 -1.31185e+06 260  790 260   0
232       963396 260  790 260   0
233  1.83268e+06 340    0 340   0
234 -1.01071e+06 340    0 340   0
235 -1.42524e+06 260  790 260   0
236       786003 260  790 260   0
237  1.74605e+06 340    0 340   0
238 -1.15393e+06 340    0 340   0
239 -1.35786e+06 260  790 260   0
240       897384 260  790 260   0
241   1.8804e+06 340    0 340   0
242      -918897 340    0 340   0
243 -1.46234e+06 260  790 260   0
244       714605 260  790 260   0
245  1.80095e+06 340    0 340   0
246 -1.06623e+06 340    0 340   0
247 -1.40056e+06 260  790 260   0
248       829180 260  790 260   0
249       543328 340    0 340   0
250  2.02115e+06 340    0 340   0
251      -422533 260  790 260   0
252  -1.5718e+06 260  790 260   0
253       277893 340    0 340   0
254  2.07438e+06 340    0 340   0
255      -216111 260  790 260   0
256 -1.61319e+06 260  790 260   0
257       442775 340    0 340   0
258  2.04553e+06 340    0 340   0
259      -344335 260  790 260   0
260 -1.59076e+06 260  790 260   0
261       175034 340    0 340   0
262  2.08558e+06 340    0 340   0
263      -136120 260  790 260   0
264  -1.6219e+06 260  790 260   0
265       341140 340    0 340   0
266  2.06492e+06 340    0 340   0
267      -265296 260  790 260   0
268 -1.60584e+06 260  790 260   0
269 -2.08067e+06 340    0 340   0
270      -226016 340    0 340   0
271  1.61809e+06 260  790 260   0
272       175767 260  790 260   0
273 -2.03409e+06 340    0 340   0
274      -492697 340    0 340   0
275  1.58186e+06 260  790 260   0
276       383158 260  790 260   0
277 -2.06696e+06 340    0 340   0
278      -328570 340    0 340   0
279  1.60742e+06 260  790 260   0
280       255521 260  790 260   0
281 -2.00725e+06 340    0 340   0
282      -592623 340    0 340   0
283  1.56099e+06 260  790 260   0
284       460869 260  790 260   0
285 -2.04819e+06 340    0 340   0
286      -430321 340    0 340   0
287  1.59283e+06 260  790 260   0
288       334650 260  790 260   0
289       964636 340    0 340   0
290 -1.85735e+06 340    0 340   0
291      -750174 260  790 260   0
292  1.44441e+06 260  790 260   0
293  1.19631e+06 340    0 340   0
294 -1.71729e+06 340    0 340   0
295      -930343 260  790 260   0
296   1.3355e+06 260  790 260   0
297  1.05525e+06 340    0 340   0
298  -1.8074e+06 340    0 340   0
299      -820643 260  790 260   0
300  1.40557e+06 260  790 260   0
301  1.27972e+06 340    0 340   0
302 -1.65607e+06 340    0 340   0
303      -995209 260  790 260   0
304  1.28789e+06 260  790 260   0
305  1.14329e+06 340    0 340   0
306 -1.75304e+06 340    0 340   0
307      -889106 260  790 260   0
308   1.3633e+06 260  790 260   0

# Format of ADC events:
# id num dwell delay freq phase
# ..  ..    ns    us   Hz   rad
[ADC]
1 512 1200 260 0 1.25664
2 512 1200 260 0 0.942478
3 512 1200 260 0 2.67035
4 512 1200 260 0 0.15708
5 512 1200 260 0 5.96903
6 512 1200 260 0 4.86947
7 512 1200 260 0 4.24115
8 512 1200 260 0 5.65487
9 512 1200 260 0 2.82743
10 512 1200 260 0 2.04204
11 512 1200 260 0 3.29867
12 512 1200 260 0 0.314159
13 512 1200 260 0 0.471239
14 512 1200 260 0 3.61283
15 512 1200 260 0 2.51327
16 512 1200 260 0 3.45575
17 512 1200 260 0 5.18363
18 512 1200 260 0 1.09956
19 512 1200 260 0 1.72788
20 512 1200 260 0 4.39823
21 512 1200 260 0 5.81195
22 512 1200 260 0 4.08407
23 512 1200 260 0 5.02655
24 512 1200 260 0 1.88496

# Format of delays:
# id delay (us)
[DELAYS]
1 1310

# Sequence Shapes
[SHAPES]

shape_id 1
num_samples 420
3e-07
2.2e-06
5.9e-06
1.17e-05
1.94e-05
2.9e-05
4.08e-05
5.45e-05
7.05e-05
8.84e-05
0.0001085
0.0001308
0.0001552
0.0001819
0.0002107
0.0002418
0.0002751
0.0003107
0.0003486
0.0003886
0.0004309
0.0004757
0.0005225
0.0005717
0.0006231
0.0006769
0.0007328
0.0007911
0.0008515
0.0009143
0.0009791
0.0010463
0.0011155
0.001187
0.0012606
0.0013362
0.001414
0.0014938
0.0015757
0.0016595
0.0017453
0.001833
0.0019226
0.002014
0.0021073
0.0022022
0.002299
0.0023972
0.0024973
0.0025987
0.0027018
0.0028063
0.0029121
0.0030193
0.0031278
0.0032375
0.0033484
0.0034603
0.0035733
0.0036872
0.003802
0.0039176
0.0040341
0.004151
0.0042687
0.0043869
0.0045055
0.0046245
0.0047438
0.0048634
0.004983
0.0051027
0.0052224
0.005342
0.0054614
0.0055805
0.0056993
0.0058177
0.0059355
0.0060527
0.0061693
0.006285
0.0064
0.0065139
0.0066269
0.0067386
0.0068493
0.0069586
0.0070666
0.0071731
0.0072781
0.0073815
0.0074831
0.007583
0.0076809
0.007777
0.0078711
0.007963
0.0080526
0.0081402
0.0082252
0.008308
0.0083882
0.0084658
0.0085408
0.008613
0.0086826
0.0087493
0.0088129
0.0088738
0.0089315
0.008986
0.0090375
0.0090858
0.0091306
0.0091723
0.0092104
0.0092452
0.0092765
0.0093042
0.0093284
0.0093488
0.0093657
0.0093788
0.0093882
0.0093937
0.0093956
0.0093935
0.0093876
0.0093777
0.0093639
0.0093463
0.0093246
0.009299
0.0092693
0.0092357
0.009198
0.0091564
0.0091107
0.009061
0.0090073
0.0089495
0.0088878
0.008822
0.0087523
0.0086786
0.0086008
0.0085193
0.0084337
0.0083443
0.008251
0.0081539
0.0080529
0.0079483
0.0078397
0.0077276
0.0076118
0.0074924
0.0073695
0.0072429
0.007113
0.0069796
0.0068428
0.0067029
0.0065596
0.0064131
0.0062635
0.006111
0.0059554
0.0057968
0.0056356
0.0054714
0.0053046
0.0051352
0.0049633
0.004789
0.0046121
0.0044331
0.0042519
0.0040686
0.0038831
0.0036959
0.0035067
0.0033159
0.0031232
0.0029292
0.0027336
0.0025366
0.0023385
0.002139
0.0019386
0.0017371
0.0015348
0.0013318
0.001128
0.0009237
0.0007189
0.0005137
0.0003084
0.0001028
-0.0001028
-0.0003084
-0.0005137
-0.0007189
-0.0009237
-0.001128
-0.0013318
-0.0015348
-0.0017371
-0.0019386
-0.002139
-0.0023385
-0.0025366
-0.0027336
-0.0029292
-0.0031232
-0.0033159
-0.0035067
-0.0036959
-0.0038831
-0.0040686
-0.0042519
-0.0044331
-0.0046121
-0.004789
-0.0049633
-0.0051352
-0.0053046
-0.0054714
-0.0056356
-0.0057968
-0.0059554
-0.006111
-0.0062635
-0.0064131
-0.0065596
-0.0067029
-0.0068428
-0.0069796
-0.007113
-0.0072429
-0.0073695
-0.0074924
-0.0076118
-0.0077276
-0.0078397
-0.0079483
-0.0080529
-0.0081539
-0.008251
-0.0083443
-0.0084337
-0.0085193
-0.0086008
-0.0086786
-0.0087523
-0.008822
-0.0088878
-0.0089495
-0.0090073
-0.009061
-0.0091107
-0.0091564
-0.009198
-0.0092357
-0.0092693
-0.009299
-0.0093246
-0.0093463
-0.0093639
-0.0093777
-0.0093876
-0.0093935
-0.0093956
-0.0093937
-0.0093882
-0.0093788
-0.0093657
-0.0093488
-0.0093284
-0.0093042
-0.0092765
-0.0092452
-0.0092104
-0.0091723
-0.0091306
-0.0090858
-0.0090375
-0.008986
-0.0089315
-0.0088738
-0.0088129
-0.0087493
-0.0086826
-0.008613
-0.0085408
-0.0084658
-0.0083882
-0.008308
-0.0082252
-0.0081402
-0.0080526
-0.007963
-0.0078711
-0.007777
-0.0076809
-0.007583
-0.0074831
-0.0073815
-0.0072781
-0.0071731
-0.0070666
-0.0069586
-0.0068493
-0.0067386
-0.0066269
-0.0065139
-0.0064
-0.006285
-0.0061693
-0.0060527
-0.0059355
-0.0058177
-0.0056993
-0.0055805
-0.0054614
-0.005342
-0.0052224
-0.0051027
-0.004983
-0.0048634
-0.0047438
-0.0046245
-0.0045055
-0.0043869
-0.0042687
-0.004151
-0.0040341
-0.0039176
-0.003802
-0.0036872
-0.0035733
-0.0034603
-0.0033484
-0.0032375
-0.0031278
-0.0030193
-0.0029121
-0.0028063
-0.0027018
-0.0025987
-0.0024973
-0.0023972
-0.002299
-0.0022022
-0.0021073
-0.002014
-0.0019226
-0.001833
-0.0017453
-0.0016595
-0.0015757
-0.0014938
-0.001414
-0.0013362
-0.0012606
-0.001187
-0.0011155
-0.0010463
-0.0009791
-0.0009143
-0.0008515
-0.0007911
-0.0007328
-0.0006769
-0.0006231
-0.0005717
-0.0005225
-0.0004757
-0.0004309
-0.0003886
-0.0003486
-0.0003107
-0.0002751
-0.0002418
-0.0002107
-0.0001819
-0.0001552
-0.0001308
-0.0001085
-8.84e-05
-7.05e-05
-5.45e-05
-4.08e-05
-2.9e-05
-1.94e-05
-1.17e-05
-5.9e-06
-2.2e-06
-3e-07
0
0
18

shape_id 2
num_samples 420
0
0
418

shape_id 3
num_samples 52
0.0425532
0.0425532
0
0
0
37
-0.0425532
-0.1675532
-0.25
-0.25
1
-0.125
0
0.125
0.25
0.25
1

shape_id 4
num_samples 52
0.0792079
0.0792079
0
0
0
37
-0.0792079
-0.3292079
-0.5
-0.25
0
0
3
0.25
0.5

shape_id 5
num_samples 52
0.1311475
0.1311476
0
0
37
-0.1311476
-0.3811475
-0.5
-0.25
0
0
3
0.25
0.5

shape_id 6
num_samples 52
0.4285714
0.4285715
0
0
37
-0.4285715
-0.9285714
-0.5
0
0
5
0.5

shape_id 7
num_samples 52
0.4736842
0.4736842
0
0
0
37
-0.4736842
0.0263158
0.5
0
0
5
-0.5

