# Pulseq sequence file
# Created by MATLAB mr toolbox

[VERSION]
major 1
minor 3
revision 1

[DEFINITIONS]
FOV 0.256 0.256 0.256 
Name 3D_radial_stackOfStars 
TotalDuration 2.34992 

# Format of blocks:
#  #  D RF  GX  GY  GZ ADC EXT
[BLOCKS]
   1  0  1   2   0   1  0  0
   2  1  0   4   0   3  0  0
   3  0  2   5   6   1  0  0
   4  1  0   7   8   3  0  0
   5  0  3   9  10   1  0  0
   6  1  0  11  12   3  0  0
   7  0  4  13  14   1  0  0
   8  1  0  15  16   3  0  0
   9  0  5  17  18   1  0  0
  10  1  0  19  20   3  0  0
  11  0  6   2   0   1  0  0
  12  1  0   4   0   3  1  0
  13  0  7   5   6   1  0  0
  14  1  0   7   8   3  2  0
  15  0  8   9  10   1  0  0
  16  1  0  11  12   3  3  0
  17  0  9  13  14   1  0  0
  18  1  0  15  16   3  4  0
  19  0 10  17  18   1  0  0
  20  1  0  19  20   3  5  0
  21  0  6  21  22   1  0  0
  22  1  0  23  24   3  1  0
  23  0 11  25  26   1  0  0
  24  1  0  27  28   3  6  0
  25  0 12  29  30   1  0  0
  26  1  0  31  32   3  7  0
  27  0 13  33  34   1  0  0
  28  1  0  35  36   3  8  0
  29  0 14  37  38   1  0  0
  30  1  0  39  40   3  9  0
  31  0  1  41  42   1  0  0
  32  1  0  43  44   3 10  0
  33  0 15  45  46   1  0  0
  34  1  0  47  48   3 11  0
  35  0 16  49  50   1  0  0
  36  1  0  51  52   3 12  0
  37  0 13  53  54   1  0  0
  38  1  0  55  56   3  8  0
  39  0 17  57  58   1  0  0
  40  1  0  59  60   3 13  0
  41  0  5  61  62   1  0  0
  42  1  0  63  64   3 14  0
  43  0 18  65  66   1  0  0
  44  1  0  67  68   3 15  0
  45  0 19  69  70   1  0  0
  46  1  0  71  72   3 16  0
  47  0  9  73  74   1  0  0
  48  1  0  75  76   3  4  0
  49  0 20  77  78   1  0  0
  50  1  0  79  80   3 17  0
  51  0 10  81  82   1  0  0
  52  1  0  83  84   3  5  0
  53  0 18  85  86   1  0  0
  54  1  0  87  88   3 15  0
  55  0 21  89  90   1  0  0
  56  1  0  91  92   3 18  0
  57  0  4  93  94   1  0  0
  58  1  0  95  96   3 19  0
  59  0 22  97  98   1  0  0
  60  1  0  99 100   3 20  0
  61  0 14 101 102   1  0  0
  62  1  0 103 104   3  9  0
  63  0 15 105 106   1  0  0
  64  1  0 107 108   3 11  0
  65  0 23 109 110   1  0  0
  66  1  0 111 112   3 21  0
  67  0  2 113 114   1  0  0
  68  1  0 115 116   3 22  0
  69  0 22 117 118   1  0  0
  70  1  0 119 120   3 20  0
  71  0 17 121 122   1  0  0
  72  1  0 123 124   3 13  0
  73  0 11 125 126   1  0  0
  74  1  0 127 128   3  6  0
  75  0 24 129 130   1  0  0
  76  1  0 131 132   3 23  0
  77  0  7 133 134   1  0  0
  78  1  0 135 136   3  2  0
  79  0 20 137 138   1  0  0
  80  1  0 139 140   3 17  0
  81  0 20 141 142   1  0  0
  82  1  0 143 144   3 17  0
  83  0  7 145 146   1  0  0
  84  1  0 147 148   3  2  0
  85  0 24 149 150   1  0  0
  86  1  0 151 152   3 23  0
  87  0 11 153 154   1  0  0
  88  1  0 155 156   3  6  0
  89  0 17 157 158   1  0  0
  90  1  0 159 160   3 13  0
  91  0 22 161 162   1  0  0
  92  1  0 163 164   3 20  0
  93  0  2 165 166   1  0  0
  94  1  0 167 168   3 22  0
  95  0 23 169 170   1  0  0
  96  1  0 171 172   3 21  0
  97  0 15 173 174   1  0  0
  98  1  0 175 176   3 11  0
  99  0 14 177 178   1  0  0
 100  1  0 179 180   3  9  0
 101  0 22 181 182   1  0  0
 102  1  0 183 184   3 20  0
 103  0  4 185 186   1  0  0
 104  1  0 187 188   3 19  0
 105  0 21 189 190   1  0  0
 106  1  0 191 192   3 18  0
 107  0 18 193 194   1  0  0
 108  1  0 195 196   3 15  0
 109  0 10 197 198   1  0  0
 110  1  0 199 200   3  5  0
 111  0 20 201 202   1  0  0
 112  1  0 203 204   3 17  0
 113  0  9 205 206   1  0  0
 114  1  0 207 208   3  4  0
 115  0 19 209 210   1  0  0
 116  1  0 211 212   3 16  0
 117  0 18 213 214   1  0  0
 118  1  0 215 216   3 15  0
 119  0  5 217 218   1  0  0
 120  1  0 219 220   3 14  0
 121  0 17 221 222   1  0  0
 122  1  0 223 224   3 13  0
 123  0 13 225 226   1  0  0
 124  1  0 227 228   3  8  0
 125  0 16 229 230   1  0  0
 126  1  0 231 232   3 12  0
 127  0 15 233 234   1  0  0
 128  1  0 235 236   3 11  0
 129  0  1 237 238   1  0  0
 130  1  0 239 240   3 10  0
 131  0 14 241 242   1  0  0
 132  1  0 243 244   3  9  0
 133  0 13 245 246   1  0  0
 134  1  0 247 248   3  8  0
 135  0 12 249 250   1  0  0
 136  1  0 251 252   3  7  0
 137  0 11 253 254   1  0  0
 138  1  0 255 256   3  6  0
 139  0  6 257 258   1  0  0
 140  1  0 259 260   3  1  0
 141  0 10 261 262   1  0  0
 142  1  0 263 264   3  5  0
 143  0  9 265 266   1  0  0
 144  1  0 267 268   3  4  0
 145  0  8 269 270   1  0  0
 146  1  0 271 272   3  3  0
 147  0  7 273 274   1  0  0
 148  1  0 275 276   3  2  0
 149  0  6 277 278   1  0  0
 150  1  0 279 280   3  1  0
 151  0  5 281 282   1  0  0
 152  1  0 283 284   3 14  0
 153  0  4 285 286   1  0  0
 154  1  0 287 288   3 19  0
 155  0  3 289 290   1  0  0
 156  1  0 291 292   3 24  0
 157  0  2 293 294   1  0  0
 158  1  0 295 296   3 22  0
 159  0  1 297 298   1  0  0
 160  1  0 299 300   3 10  0
 161  0  1 301 302   1  0  0
 162  1  0 303 304   3 10  0
 163  0  2 305 306   1  0  0
 164  1  0 307 308   3 22  0
 165  0  3 309 310   1  0  0
 166  1  0 311 312   3 24  0
 167  0  4 313 314   1  0  0
 168  1  0 315 316   3 19  0
 169  0  5 317 318   1  0  0
 170  1  0 319 320   3 14  0
 171  0  6 321 322   1  0  0
 172  1  0 323 324   3  1  0
 173  0  7 325 326   1  0  0
 174  1  0 327 328   3  2  0
 175  0  8 329 330   1  0  0
 176  1  0 331 332   3  3  0
 177  0  9 333 334   1  0  0
 178  1  0 335 336   3  4  0
 179  0 10 337 338   1  0  0
 180  1  0 339 340   3  5  0
 181  0  6 341 342   1  0  0
 182  1  0 343 344   3  1  0
 183  0 11 345 346   1  0  0
 184  1  0 347 348   3  6  0
 185  0 12 349 350   1  0  0
 186  1  0 351 352   3  7  0
 187  0 13 353 354   1  0  0
 188  1  0 355 356   3  8  0
 189  0 14 357 358   1  0  0
 190  1  0 359 360   3  9  0
 191  0  1 361 362   1  0  0
 192  1  0 363 364   3 10  0
 193  0 15 365 366   1  0  0
 194  1  0 367 368   3 11  0
 195  0 16 369 370   1  0  0
 196  1  0 371 372   3 12  0
 197  0 13 373 374   1  0  0
 198  1  0 375 376   3  8  0
 199  0 17 377 378   1  0  0
 200  1  0 379 380   3 13  0
 201  0  5 381 382   1  0  0
 202  1  0 383 384   3 14  0
 203  0 18 385 386   1  0  0
 204  1  0 387 388   3 15  0
 205  0 19 389 390   1  0  0
 206  1  0 391 392   3 16  0
 207  0  9 393 394   1  0  0
 208  1  0 395 396   3  4  0
 209  0 20 397 398   1  0  0
 210  1  0 399 400   3 17  0
 211  0 10 401 402   1  0  0
 212  1  0 403 404   3  5  0
 213  0 18 405 406   1  0  0
 214  1  0 407 408   3 15  0
 215  0 21 409 410   1  0  0
 216  1  0 411 412   3 18  0
 217  0  4 413 414   1  0  0
 218  1  0 415 416   3 19  0
 219  0 22 417 418   1  0  0
 220  1  0 419 420   3 20  0
 221  0 14 421 422   1  0  0
 222  1  0 423 424   3  9  0
 223  0 15 425 426   1  0  0
 224  1  0 427 428   3 11  0
 225  0 23 429 430   1  0  0
 226  1  0 431 432   3 21  0
 227  0  2 433 434   1  0  0
 228  1  0 435 436   3 22  0
 229  0 22 437 438   1  0  0
 230  1  0 439 440   3 20  0
 231  0 17 441 442   1  0  0
 232  1  0 443 444   3 13  0
 233  0 11 445 446   1  0  0
 234  1  0 447 448   3  6  0
 235  0 24 449 450   1  0  0
 236  1  0 451 452   3 23  0
 237  0  7 453 454   1  0  0
 238  1  0 455 456   3  2  0
 239  0 20 457 458   1  0  0
 240  1  0 459 460   3 17  0
 241  0 20 461 462   1  0  0
 242  1  0 463 464   3 17  0
 243  0  7 465 466   1  0  0
 244  1  0 467 468   3  2  0
 245  0 24 469 470   1  0  0
 246  1  0 471 472   3 23  0
 247  0 11 473 474   1  0  0
 248  1  0 475 476   3  6  0
 249  0 17 477 478   1  0  0
 250  1  0 479 480   3 13  0
 251  0 22 481 482   1  0  0
 252  1  0 483 484   3 20  0
 253  0  2 485 486   1  0  0
 254  1  0 487 488   3 22  0
 255  0 23 489 490   1  0  0
 256  1  0 491 492   3 21  0
 257  0 15 493 494   1  0  0
 258  1  0 495 496   3 11  0
 259  0 14 497 498   1  0  0
 260  1  0 499 500   3  9  0
 261  0 22 501 502   1  0  0
 262  1  0 503 504   3 20  0
 263  0  4 505 506   1  0  0
 264  1  0 507 508   3 19  0
 265  0 21 509 510   1  0  0
 266  1  0 511 512   3 18  0
 267  0 18 513 514   1  0  0
 268  1  0 515 516   3 15  0
 269  0 10 517 518   1  0  0
 270  1  0 519 520   3  5  0
 271  0 20 521 522   1  0  0
 272  1  0 523 524   3 17  0
 273  0  9 525 526   1  0  0
 274  1  0 527 528   3  4  0
 275  0 19 529 530   1  0  0
 276  1  0 531 532   3 16  0
 277  0 18 533 534   1  0  0
 278  1  0 535 536   3 15  0
 279  0  5 537 538   1  0  0
 280  1  0 539 540   3 14  0
 281  0 17 541 542   1  0  0
 282  1  0 543 544   3 13  0
 283  0 13 545 546   1  0  0
 284  1  0 547 548   3  8  0
 285  0 16 549 550   1  0  0
 286  1  0 551 552   3 12  0
 287  0 15 553 554   1  0  0
 288  1  0 555 556   3 11  0
 289  0  1 557 558   1  0  0
 290  1  0 559 560   3 10  0
 291  0 14 561 562   1  0  0
 292  1  0 563 564   3  9  0
 293  0 13 565 566   1  0  0
 294  1  0 567 568   3  8  0
 295  0 12 569 570   1  0  0
 296  1  0 571 572   3  7  0
 297  0 11 573 574   1  0  0
 298  1  0 575 576   3  6  0
 299  0  6 577 578   1  0  0
 300  1  0 579 580   3  1  0
 301  0 10 581 582   1  0  0
 302  1  0 583 584   3  5  0
 303  0  9 585 586   1  0  0
 304  1  0 587 588   3  4  0
 305  0  8 589 590   1  0  0
 306  1  0 591 592   3  3  0
 307  0  7 593 594   1  0  0
 308  1  0 595 596   3  2  0
 309  0  6 597 598   1  0  0
 310  1  0 599 600   3  1  0
 311  0  5 601 602   1  0  0
 312  1  0 603 604   3 14  0
 313  0  4 605 606   1  0  0
 314  1  0 607 608   3 19  0
 315  0  3 609 610   1  0  0
 316  1  0 611 612   3 24  0
 317  0  2 613 614   1  0  0
 318  1  0 615 616   3 22  0
 319  0  1 617 618   1  0  0
 320  1  0 619 620   3 10  0
 321  0  1 621 622   1  0  0
 322  1  0 623 624   3 10  0
 323  0  2 625 626   1  0  0
 324  1  0 627 628   3 22  0
 325  0  3 629 630   1  0  0
 326  1  0 631 632   3 24  0
 327  0  4 633 634   1  0  0
 328  1  0 635 636   3 19  0
 329  0  5 637 638   1  0  0
 330  1  0 639 640   3 14  0
 331  0  6 641 642   1  0  0
 332  1  0 643 644   3  1  0
 333  0  7 645 646   1  0  0
 334  1  0 647 648   3  2  0
 335  0  8 649 650   1  0  0
 336  1  0 651 652   3  3  0
[RF]
1      85.1875 1 2 100 0 2.04204
2      85.1875 1 2 100 0 4.08407
3      85.1875 1 2 100 0 1.88496
4      85.1875 1 2 100 0 1.72788
5      85.1875 1 2 100 0 3.61283
6      85.1875 1 2 100 0 1.25664
7      85.1875 1 2 100 0 0.942478
8      85.1875 1 2 100 0 2.67035
9      85.1875 1 2 100 0 0.15708
10      85.1875 1 2 100 0 5.96903
11      85.1875 1 2 100 0 4.86947
12      85.1875 1 2 100 0 4.24115
13      85.1875 1 2 100 0 5.65487
14      85.1875 1 2 100 0 2.82743
15      85.1875 1 2 100 0 3.29867
16      85.1875 1 2 100 0 0.314159
17      85.1875 1 2 100 0 0.471239
18      85.1875 1 2 100 0 2.51327
19      85.1875 1 2 100 0 3.45575
20      85.1875 1 2 100 0 5.18363
21      85.1875 1 2 100 0 1.09956
22      85.1875 1 2 100 0 4.39823
23      85.1875 1 2 100 0 5.81195
24      85.1875 1 2 100 0 5.02655

# Format of arbitrary gradients:
# id amplitude shape_id delay
# ..      Hz/m     ....    us
[GRADIENTS]
1  1.40001e+06 3 90
1025      19531.3 4 90
2049  1.32997e+06 5 90

# Format of trapezoid gradients:
# id amplitude rise flat fall delay
# ..      Hz/m   us   us   us    us
[TRAP]
 2 -2.09291e+06 340    0 340 500
 3      -724638 120  570 120 1050
 4   1.6276e+06 260  790 260   0
 5       758417 340    0 340 500
 6 -1.95066e+06 340    0 340 500
 7      -589803 260  790 260   0
 8  1.51698e+06 260  790 260   0
 9  1.54324e+06 340    0 340 500
10  1.41374e+06 340    0 340 500
11 -1.20014e+06 260  790 260   0
12 -1.09943e+06 260  790 260   0
13 -1.87688e+06 340    0 340 500
14       926051 340    0 340 500
15  1.45961e+06 260  790 260   0
16      -720168 260  790 260   0
17      -182974 340    0 340 500
18 -2.08489e+06 340    0 340 500
19       142294 260  790 260   0
20  1.62137e+06 260  790 260   0
21  2.00949e+06 340    0 340 500
22       584976 340    0 340 500
23 -1.56274e+06 260  790 260   0
24      -454921 260  790 260   0
25 -1.27341e+06 340    0 340 500
26  1.66093e+06 340    0 340 500
27       990298 260  790 260   0
28 -1.29167e+06 260  790 260   0
29 -1.08659e+06 340    0 340 500
30 -1.78874e+06 340    0 340 500
31       845017 260  790 260   0
32  1.39106e+06 260  790 260   0
33  2.06091e+06 340    0 340 500
34      -364547 340    0 340 500
35 -1.60272e+06 260  790 260   0
36       283499 260  790 260   0
37      -407054 340    0 340 500
38  2.05294e+06 340    0 340 500
39       316556 260  790 260   0
40 -1.59652e+06 260  790 260   0
41  -1.7659e+06 340    0 340 500
42 -1.12332e+06 340    0 340 500
43   1.3733e+06 260  790 260   0
44       873581 260  790 260   0
45  1.68689e+06 340    0 340 500
46 -1.23881e+06 340    0 340 500
47 -1.31185e+06 260  790 260   0
48       963396 260  790 260   0
49       543328 340    0 340 500
50  2.02115e+06 340    0 340 500
51      -422533 260  790 260   0
52  -1.5718e+06 260  790 260   0
53 -2.08067e+06 340    0 340 500
54      -226016 340    0 340 500
55  1.61809e+06 260  790 260   0
56       175767 260  790 260   0
57       964636 340    0 340 500
58 -1.85735e+06 340    0 340 500
59      -750174 260  790 260   0
60  1.44441e+06 260  790 260   0
61  1.38155e+06 340    0 340 500
62  1.57213e+06 340    0 340 500
63  -1.0744e+06 260  790 260   0
64 -1.22261e+06 260  790 260   0
65 -1.96591e+06 340    0 340 500
66       717948 340    0 340 500
67  1.52884e+06 260  790 260   0
68      -558331 260  790 260   0
69      43246.4 340    0 340 500
70 -2.09246e+06 340    0 340 500
71     -33631.7 260  790 260   0
72  1.62726e+06 260  790 260   0
73  1.93457e+06 340    0 340 500
74       798562 340    0 340 500
75 -1.50447e+06 260  790 260   0
76      -621023 260  790 260   0
77 -1.44533e+06 340    0 340 500
78   1.5137e+06 340    0 340 500
79    1.124e+06 260  790 260   0
80 -1.17717e+06 260  790 260   0
81      -887070 340    0 340 500
82 -1.89562e+06 340    0 340 500
83       689854 260  790 260   0
84  1.47418e+06 260  790 260   0
85  2.08823e+06 340    0 340 500
86      -139854 340    0 340 500
87 -1.62397e+06 260  790 260   0
88       108761 260  790 260   0
89      -626373 340    0 340 500
90  1.99698e+06 340    0 340 500
91       487116 260  790 260   0
92   -1.553e+06 260  790 260   0
93 -1.63427e+06 340    0 340 500
94 -1.30745e+06 340    0 340 500
95  1.27093e+06 260  790 260   0
96  1.01678e+06 260  790 260   0
97  1.81081e+06 340    0 340 500
98  -1.0494e+06 340    0 340 500
99 -1.40822e+06 260  790 260   0
100       816093 260  790 260   0
101       321884 340    0 340 500
102  2.06801e+06 340    0 340 500
103      -250321 260  790 260   0
104 -1.60824e+06 260  790 260   0
105 -2.04409e+06 340    0 340 500
106      -449388 340    0 340 500
107  1.58964e+06 260  790 260   0
108       349478 260  790 260   0
109  1.15957e+06 340    0 340 500
110 -1.74231e+06 340    0 340 500
111      -901771 260  790 260   0
112  1.35496e+06 260  790 260   0
113  1.20369e+06 340    0 340 500
114  1.71213e+06 340    0 340 500
115      -936083 260  790 260   0
116 -1.33148e+06 260  790 260   0
117 -2.03195e+06 340    0 340 500
118       501448 340    0 340 500
119   1.5802e+06 260  790 260   0
120      -389964 260  790 260   0
121       268961 340    0 340 500
122 -2.07555e+06 340    0 340 500
123      -209165 260  790 260   0
124  1.61411e+06 260  790 260   0
125  1.83702e+06 340    0 340 500
126  1.00281e+06 340    0 340 500
127 -1.42861e+06 260  790 260   0
128      -779860 260  790 260   0
129 -1.60034e+06 340    0 340 500
130  1.34877e+06 340    0 340 500
131  1.24455e+06 260  790 260   0
132  -1.0489e+06 260  790 260   0
133      -677173 340    0 340 500
134 -1.98033e+06 340    0 340 500
135       526621 260  790 260   0
136  1.54005e+06 260  790 260   0
137  2.09112e+06 340    0 340 500
138      86474.4 340    0 340 500
139 -1.62621e+06 260  790 260   0
140     -67249.1 260  790 260   0
141      -838366 340    0 340 500
142  1.91766e+06 340    0 340 500
143       651978 260  790 260   0
144 -1.49132e+06 260  790 260   0
145 -1.48351e+06 340    0 340 500
146 -1.47629e+06 340    0 340 500
147  1.15369e+06 260  790 260   0
148  1.14808e+06 260  790 260   0
149  1.91354e+06 340    0 340 500
150      -847711 340    0 340 500
151 -1.48812e+06 260  790 260   0
152       659245 260  790 260   0
153      96674.4 340    0 340 500
154  2.09067e+06 340    0 340 500
155     -75181.4 260  790 260   0
156 -1.62587e+06 260  790 260   0
157 -1.98361e+06 340    0 340 500
158      -667504 340    0 340 500
159   1.5426e+06 260  790 260   0
160       519102 260  790 260   0
161  1.34094e+06 340    0 340 500
162  -1.6069e+06 340    0 340 500
163 -1.04282e+06 260  790 260   0
164  1.24965e+06 260  790 260   0
165  1.01176e+06 340    0 340 500
166   1.8321e+06 340    0 340 500
167      -786820 260  790 260   0
168 -1.42478e+06 260  790 260   0
169 -2.07422e+06 340    0 340 500
170       279083 340    0 340 500
171  1.61307e+06 260  790 260   0
172      -217036 260  790 260   0
173       491530 340    0 340 500
174 -2.03437e+06 340    0 340 500
175      -382251 260  790 260   0
176  1.58208e+06 260  790 260   0
177  1.71798e+06 340    0 340 500
178  1.19533e+06 340    0 340 500
179 -1.33603e+06 260  790 260   0
180      -929577 260  790 260   0
181 -1.73664e+06 340    0 340 500
182  1.16806e+06 340    0 340 500
183  1.35054e+06 260  790 260   0
184      -908370 260  790 260   0
185      -459354 340    0 340 500
186 -2.04188e+06 340    0 340 500
187       357229 260  790 260   0
188  1.58792e+06 260  790 260   0
189  2.06955e+06 340    0 340 500
190       311791 340    0 340 500
191 -1.60944e+06 260  790 260   0
192      -242473 260  790 260   0
193 -1.04055e+06 340    0 340 500
194   1.8159e+06 340    0 340 500
195       809214 260  790 260   0
196 -1.41219e+06 260  790 260   0
197 -1.31541e+06 340    0 340 500
198 -1.62787e+06 340    0 340 500
199  1.02296e+06 260  790 260   0
200  1.26595e+06 260  790 260   0
201   1.9939e+06 340    0 340 500
202      -636108 340    0 340 500
203 -1.55061e+06 260  790 260   0
204       494686 260  790 260   0
205      -129665 340    0 340 500
206  2.08889e+06 340    0 340 500
207       100838 260  790 260   0
208 -1.62448e+06 260  790 260   0
209 -1.89992e+06 340    0 340 500
210      -877813 340    0 340 500
211  1.47752e+06 260  790 260   0
212       682654 260  790 260   0
213  1.50663e+06 340    0 340 500
214 -1.45269e+06 340    0 340 500
215 -1.17167e+06 260  790 260   0
216  1.12972e+06 260  790 260   0
217       807990 340    0 340 500
218  1.93065e+06 340    0 340 500
219      -628355 260  790 260   0
220 -1.50142e+06 260  790 260   0
221 -2.09222e+06 340    0 340 500
222      53453.5 340    0 340 500
223  1.62707e+06 260  790 260   0
224     -41569.5 260  790 260   0
225       708349 340    0 340 500
226 -1.96939e+06 340    0 340 500
227      -550866 260  790 260   0
228  1.53155e+06 260  790 260   0
229  1.57885e+06 340    0 340 500
230  1.37386e+06 340    0 340 500
231 -1.22783e+06 260  790 260   0
232 -1.06842e+06 260  790 260   0
233 -1.85262e+06 340    0 340 500
234       973685 340    0 340 500
235  1.44074e+06 260  790 260   0
236      -757212 260  790 260   0
237      -236163 340    0 340 500
238 -2.07954e+06 340    0 340 500
239       183658 260  790 260   0
240  1.61721e+06 260  790 260   0
241  2.02378e+06 340    0 340 500
242       533462 340    0 340 500
243 -1.57384e+06 260  790 260   0
244      -414860 260  790 260   0
245 -1.23057e+06 340    0 340 500
246  1.69291e+06 340    0 340 500
247       956985 260  790 260   0
248 -1.31654e+06 260  790 260   0
249 -1.13192e+06 340    0 340 500
250  -1.7604e+06 340    0 340 500
251       880270 260  790 260   0
252  1.36902e+06 260  790 260   0
253  2.05093e+06 340    0 340 500
254      -417064 340    0 340 500
255 -1.59496e+06 260  790 260   0
256       324341 260  790 260   0
257      -354489 340    0 340 500
258  2.06267e+06 340    0 340 500
259       275677 260  790 260   0
260 -1.60409e+06 260  790 260   0
261 -1.79402e+06 340    0 340 500
262 -1.07785e+06 340    0 340 500
263  1.39516e+06 260  790 260   0
264       838221 260  790 260   0
265   1.6547e+06 340    0 340 500
266 -1.28149e+06 340    0 340 500
267 -1.28682e+06 260  790 260   0
268       996587 260  790 260   0
269       594771 340    0 340 500
270  2.00662e+06 340    0 340 500
271      -462540 260  790 260   0
272  -1.5605e+06 260  790 260   0
273 -2.08576e+06 340    0 340 500
274      -172801 340    0 340 500
275  1.62205e+06 260  790 260   0
276       134383 260  790 260   0
277       916884 340    0 340 500
278 -1.88138e+06 340    0 340 500
279      -713039 260  790 260   0
280   1.4631e+06 260  790 260   0
281  1.42125e+06 340    0 340 500
282  1.53633e+06 340    0 340 500
283 -1.10527e+06 260  790 260   0
284 -1.19477e+06 260  790 260   0
285 -1.94693e+06 340    0 340 500
286       767924 340    0 340 500
287  1.51408e+06 260  790 260   0
288      -597196 260  790 260   0
289     -10209.8 340    0 340 500
290 -2.09288e+06 340    0 340 500
291       7939.9 260  790 260   0
292  1.62758e+06 260  790 260   0
293  1.95433e+06 340    0 340 500
294       748892 340    0 340 500
295 -1.51984e+06 260  790 260   0
296      -582396 260  790 260   0
297 -1.40619e+06 340    0 340 500
298  1.55012e+06 340    0 340 500
299  1.09356e+06 260  790 260   0
300 -1.20549e+06 260  790 260   0
301      -935196 340    0 340 500
302 -1.87234e+06 340    0 340 500
303       727279 260  790 260   0
304  1.45608e+06 260  790 260   0
305  2.08398e+06 340    0 340 500
306      -193142 340    0 340 500
307 -1.62066e+06 260  790 260   0
308       150202 260  790 260   0
309      -575166 340    0 340 500
310  2.01232e+06 340    0 340 500
311       447293 260  790 260   0
312 -1.56494e+06 260  790 260   0
313 -1.66713e+06 340    0 340 500
314 -1.26529e+06 340    0 340 500
315  1.29648e+06 260  790 260   0
316       983985 260  790 260   0
317  1.78341e+06 340    0 340 500
318 -1.09531e+06 340    0 340 500
319 -1.38692e+06 260  790 260   0
320       851793 260  790 260   0
321       374596 340    0 340 500
322  2.05911e+06 340    0 340 500
323      -291314 260  790 260   0
324 -1.60132e+06 260  790 260   0
325  -2.0549e+06 340    0 340 500
326      -397035 340    0 340 500
327  1.59805e+06 260  790 260   0
328       308764 260  790 260   0
329  1.11469e+06 340    0 340 500
330 -1.77136e+06 340    0 340 500
331      -866871 260  790 260   0
332  1.37754e+06 260  790 260   0
333  1.24703e+06 340    0 340 500
334  1.68083e+06 340    0 340 500
335      -969784 260  790 260   0
336 -1.30714e+06 260  790 260   0
337 -2.01848e+06 340    0 340 500
338       553181 340    0 340 500
339  1.56972e+06 260  790 260   0
340      -430196 260  790 260   0
341       215863 340    0 340 500
342 -2.08175e+06 340    0 340 500
343      -167871 260  790 260   0
344  1.61892e+06 260  790 260   0
345  1.86203e+06 340    0 340 500
346       955564 340    0 340 500
347 -1.44806e+06 260  790 260   0
348      -743119 260  790 260   0
349 -1.56537e+06 340    0 340 500
350   1.3892e+06 340    0 340 500
351  1.21735e+06 260  790 260   0
352 -1.08035e+06 260  790 260   0
353      -727530 340    0 340 500
354 -1.96239e+06 340    0 340 500
355       565783 260  790 260   0
356   1.5261e+06 260  790 260   0
357  2.09265e+06 340    0 340 500
358      33038.3 340    0 340 500
359  -1.6274e+06 260  790 260   0
360     -25693.1 260  790 260   0
361      -789115 340    0 340 500
362  1.93844e+06 340    0 340 500
363       613676 260  790 260   0
364 -1.50748e+06 260  790 260   0
365 -1.52074e+06 340    0 340 500
366 -1.43792e+06 340    0 340 500
367  1.18264e+06 260  790 260   0
368  1.11824e+06 260  790 260   0
369  1.89127e+06 340    0 340 500
370      -896307 340    0 340 500
371 -1.47079e+06 260  790 260   0
372       697037 260  790 260   0
373       150039 340    0 340 500
374  2.08752e+06 340    0 340 500
375      -116682 260  790 260   0
376 -1.62342e+06 260  790 260   0
377 -2.00001e+06 340    0 340 500
378      -616624 340    0 340 500
379  1.55536e+06 260  790 260   0
380       479534 260  790 260   0
381  1.29947e+06 340    0 340 500
382 -1.64062e+06 340    0 340 500
383 -1.01056e+06 260  790 260   0
384  1.27587e+06 260  790 260   0
385  1.05822e+06 340    0 340 500
386  1.80567e+06 340    0 340 500
387      -822953 260  790 260   0
388 -1.40422e+06 260  790 260   0
389 -2.06641e+06 340    0 340 500
390       331968 340    0 340 500
391    1.607e+06 260  790 260   0
392      -258164 260  790 260   0
393       439411 340    0 340 500
394 -2.04626e+06 340    0 340 500
395      -341719 260  790 260   0
396  1.59133e+06 260  790 260   0
397  1.74795e+06 340    0 340 500
398  1.15106e+06 340    0 340 500
399 -1.35934e+06 260  790 260   0
400      -895151 260  790 260   0
401 -1.70624e+06 340    0 340 500
402  1.21203e+06 340    0 340 500
403   1.3269e+06 260  790 260   0
404      -942567 260  790 260   0
405      -511354 340    0 340 500
406 -2.02948e+06 340    0 340 500
407       397668 260  790 260   0
408  1.57828e+06 260  790 260   0
409  2.07684e+06 340    0 340 500
410       258833 340    0 340 500
411 -1.61511e+06 260  790 260   0
412      -201288 260  790 260   0
413      -993835 340    0 340 500
414  1.84189e+06 340    0 340 500
415       772882 260  790 260   0
416 -1.43239e+06 260  790 260   0
417 -1.35656e+06 340    0 340 500
418 -1.59374e+06 340    0 340 500
419  1.05496e+06 260  790 260   0
420  1.23941e+06 260  790 260   0
421    1.977e+06 340    0 340 500
422      -686825 340    0 340 500
423 -1.53747e+06 260  790 260   0
424       534127 260  790 260   0
425     -76272.3 340    0 340 500
426  2.09152e+06 340    0 340 500
427      59315.1 260  790 260   0
428 -1.62652e+06 260  790 260   0
429 -1.92172e+06 340    0 340 500
430      -829002 340    0 340 500
431  1.49448e+06 260  790 260   0
432       644695 260  790 260   0
433  1.46904e+06 340    0 340 500
434  -1.4907e+06 340    0 340 500
435 -1.14244e+06 260  790 260   0
436  1.15928e+06 260  790 260   0
437       857036 340    0 340 500
438  1.90938e+06 340    0 340 500
439      -666496 260  790 260   0
440 -1.48488e+06 260  790 260   0
441 -2.09018e+06 340    0 340 500
442       106872 340    0 340 500
443  1.62548e+06 260  790 260   0
444     -83111.9 260  790 260   0
445       657819 340    0 340 500
446 -1.98684e+06 340    0 340 500
447      -511570 260  790 260   0
448  1.54512e+06 260  790 260   0
449  1.61342e+06 340    0 340 500
450  1.33309e+06 340    0 340 500
451 -1.25472e+06 260  790 260   0
452 -1.03671e+06 260  790 260   0
453 -1.82715e+06 340    0 340 500
454  1.02068e+06 340    0 340 500
455  1.42093e+06 260  790 260   0
456      -793761 260  790 260   0
457      -289198 340    0 340 500
458 -2.07283e+06 340    0 340 500
459       224903 260  790 260   0
460  1.61199e+06 260  790 260   0
461  2.03674e+06 340    0 340 500
462       481600 340    0 340 500
463 -1.58393e+06 260  790 260   0
464      -374529 260  790 260   0
465 -1.18693e+06 340    0 340 500
466  1.72379e+06 340    0 340 500
467       923048 260  790 260   0
468 -1.34055e+06 260  790 260   0
469 -1.17652e+06 340    0 340 500
470 -1.73092e+06 340    0 340 500
471       914948 260  790 260   0
472  1.34609e+06 260  790 260   0
473  2.03961e+06 340    0 340 500
474      -469310 340    0 340 500
475 -1.58616e+06 260  790 260   0
476       364971 260  790 260   0
477      -301692 340    0 340 500
478  2.07105e+06 340    0 340 500
479       234619 260  790 260   0
480 -1.61061e+06 260  790 260   0
481 -1.82096e+06 340    0 340 500
482 -1.03168e+06 340    0 340 500
483  1.41612e+06 260  790 260   0
484       802315 260  790 260   0
485  1.62143e+06 340    0 340 500
486 -1.32334e+06 340    0 340 500
487 -1.26095e+06 260  790 260   0
488  1.02913e+06 260  790 260   0
489       645827 340    0 340 500
490  1.99077e+06 340    0 340 500
491      -502244 260  790 260   0
492 -1.54818e+06 260  790 260   0
493 -2.08949e+06 340    0 340 500
494      -119474 340    0 340 500
495  1.62495e+06 260  790 260   0
496      92911.9 260  790 260   0
497       868534 340    0 340 500
498 -1.90418e+06 340    0 340 500
499      -675438 260  790 260   0
500  1.48084e+06 260  790 260   0
501  1.46002e+06 340    0 340 500
502  1.49953e+06 340    0 340 500
503 -1.13543e+06 260  790 260   0
504 -1.16615e+06 260  790 260   0
505 -1.92669e+06 340    0 340 500
506       817399 340    0 340 500
507  1.49834e+06 260  790 260   0
508      -635671 260  790 260   0
509     -63659.3 340    0 340 500
510 -2.09194e+06 340    0 340 500
511      49506.3 260  790 260   0
512  1.62685e+06 260  790 260   0
513  1.97282e+06 340    0 340 500
514       698734 340    0 340 500
515 -1.53422e+06 260  790 260   0
516      -543388 260  790 260   0
517 -1.36614e+06 340    0 340 500
518  1.58553e+06 340    0 340 500
519  1.06242e+06 260  790 260   0
520 -1.23303e+06 260  790 260   0
521      -982711 340    0 340 500
522 -1.84785e+06 340    0 340 500
523       764231 260  790 260   0
524  1.43703e+06 260  790 260   0
525  2.07836e+06 340    0 340 500
526      -246305 340    0 340 500
527 -1.61629e+06 260  790 260   0
528       191545 260  790 260   0
529      -523583 340    0 340 500
530  2.02636e+06 340    0 340 500
531       407178 260  790 260   0
532 -1.57585e+06 260  790 260   0
533  -1.6989e+06 340    0 340 500
534  -1.2223e+06 340    0 340 500
535  1.32119e+06 260  790 260   0
536       950551 260  790 260   0
537  1.75486e+06 340    0 340 500
538  -1.1405e+06 340    0 340 500
539 -1.36471e+06 260  790 260   0
540       886938 260  790 260   0
541       427064 340    0 340 500
542  2.04887e+06 340    0 340 500
543      -332118 260  790 260   0
544 -1.59336e+06 260  790 260   0
545 -2.06437e+06 340    0 340 500
546      -344422 340    0 340 500
547  1.60541e+06 260  790 260   0
548       267849 260  790 260   0
549  1.06909e+06 340    0 340 500
550 -1.79925e+06 340    0 340 500
551      -831405 260  790 260   0
552  1.39924e+06 260  790 260   0
553  1.28955e+06 340    0 340 500
554  1.64843e+06 340    0 340 500
555 -1.00285e+06 260  790 260   0
556 -1.28194e+06 260  790 260   0
557 -2.00369e+06 340    0 340 500
558       604553 340    0 340 500
559  1.55822e+06 260  790 260   0
