# Pulseq sequence file
# Created by MATLAB mr toolbox

[VERSION]
major 1
minor 3
revision 1

[DEFINITIONS]
FOV 0.256 0.256 0.256 
Name 3D_radial_stackOfStars 
TotalDuration 0.2142 

# Format of blocks:
#  #  D RF  GX  GY  GZ ADC EXT
[BLOCKS]
  1  0  1   2   0   1  0  0
  2  1  0   4   0   3  0  0
  3  0  2   5   6   1  0  0
  4  1  0   7   8   3  0  0
  5  0  3   9  10   1  0  0
  6  1  0  11  12   3  0  0
  7  0  4  13  14   1  0  0
  8  1  0  15  16   3  0  0
  9  0  5  17  18   1  0  0
 10  1  0  19  20   3  0  0
 11  0  6   2   0   1  0  0
 12  1  0   4   0   3  1  0
 13  0  7   5   6   1  0  0
 14  1  0   7   8   3  2  0
 15  0  8   9  10   1  0  0
 16  1  0  11  12   3  3  0
 17  0  9  13  14   1  0  0
 18  1  0  15  16   3  4  0
 19  0 10  17  18   1  0  0
 20  1  0  19  20   3  5  0
 21  0  6  21  22   1  0  0
 22  1  0  23  24   3  1  0
 23  0 11  25  26   1  0  0
 24  1  0  27  28   3  6  0
 25  0 12  29  30   1  0  0
 26  1  0  31  32   3  7  0
 27  0 13  33  34   1  0  0
 28  1  0  35  36   3  8  0
 29  0 14  37  38   1  0  0
 30  1  0  39  40   3  9  0
 31  0  1  41  42   1  0  0
 32  1  0  43  44   3 10  0
 33  0 15  45  46   1  0  0
 34  1  0  47  48   3 11  0
 35  0 16  49  50   1  0  0
 36  1  0  51  52   3 12  0
 37  0 13  53  54   1  0  0
 38  1  0  55  56   3  8  0
 39  0 17  57  58   1  0  0
 40  1  0  59  60   3 13  0
 41  0  5  61  62   1  0  0
 42  1  0  63  64   3 14  0
 43  0 18  65  66   1  0  0
 44  1  0  67  68   3 15  0
 45  0 19  69  70   1  0  0
 46  1  0  71  72   3 16  0
 47  0  9  73  74   1  0  0
 48  1  0  75  76   3  4  0
 49  0 20  77  78   1  0  0
 50  1  0  79  80   3 17  0
 51  0 10  81  82   1  0  0
 52  1  0  83  84   3  5  0
 53  0 18   2  86  85  0  0
 54  1  0   4  88  87 15  0
 55  0 21  89  90  85  0  0
 56  1  0  91  92  87 18  0
 57  0  4  93  94  85  0  0
 58  1  0  95  96  87 19  0
 59  0 22  97  98  85  0  0
 60  1  0  99 100  87 20  0
 61  0 14 101 102  85  0  0
 62  1  0 103 104  87  9  0
 63  0 15 105 106  85  0  0
 64  1  0 107 108  87 11  0
 65  0 23 109 110  85  0  0
 66  1  0 111 112  87 21  0
 67  0  2 113 114  85  0  0
 68  1  0 115 116  87 22  0
 69  0 22 117 118  85  0  0
 70  1  0 119 120  87 20  0
 71  0 17 121 122  85  0  0
 72  1  0 123 124  87 13  0
 73  0 11 125 126  85  0  0
 74  1  0 127 128  87  6  0
 75  0 24 129 130  85  0  0
 76  1  0 131 132  87 23  0
 77  0  7 133 134  85  0  0
 78  1  0 135 136  87  2  0
 79  0 20 137 138  85  0  0
 80  1  0 139 140  87 17  0
 81  0 20 141 142  85  0  0
 82  1  0 143 144  87 17  0
 83  0  7 145 146  85  0  0
 84  1  0 147 148  87  2  0
 85  0 24 149 150  85  0  0
 86  1  0 151 152  87 23  0
 87  0 11 153 154  85  0  0
 88  1  0 155 156  87  6  0
 89  0 17 157 158  85  0  0
 90  1  0 159 160  87 13  0
 91  0 22 161 162  85  0  0
 92  1  0 163 164  87 20  0
 93  0  2 165 166  85  0  0
 94  1  0 167 168  87 22  0
 95  0 23 170 171 169  0  0
 96  1  0 173 174 172 21  0
 97  0 15 175 176 169  0  0
 98  1  0 177 178 172 11  0
 99  0 14 179 180 169  0  0
100  1  0 181 182 172  9  0
101  0 22 183 184 169  0  0
102  1  0 185 186 172 20  0
103  0  4 187 188 169  0  0
104  1  0 189 190 172 19  0
105  0 21 191 192 169  0  0
106  1  0 193 194 172 18  0
107  0 18 195 196 169  0  0
108  1  0 197 198 172 15  0
109  0 10 199 200 169  0  0
110  1  0 201 202 172  5  0
111  0 20 203 204 169  0  0
112  1  0 205 206 172 17  0
113  0  9 207 208 169  0  0
114  1  0 209 210 172  4  0
115  0 19 211 212 169  0  0
116  1  0 213 214 172 16  0
117  0 18 215 216 169  0  0
118  1  0 217 218 172 15  0
119  0  5 219 220 169  0  0
120  1  0 221 222 172 14  0
121  0 17 223 224 169  0  0
122  1  0 225 226 172 13  0
123  0 13 227 228 169  0  0
124  1  0 229 230 172  8  0
125  0 16 231 232 169  0  0
126  1  0 233 234 172 12  0
127  0 15 235 236 169  0  0
128  1  0 237 238 172 11  0
129  0  1 239 240 169  0  0
130  1  0 241 242 172 10  0
131  0 14 243 244 169  0  0
132  1  0 245 246 172  9  0
133  0 13 247 248 169  0  0
134  1  0 249 250 172  8  0
135  0 12 251 252 169  0  0
136  1  0 253 254 172  7  0

# Format of RF events:
# id amplitude mag_id phase_id delay freq phase
# ..        Hz   ....     ....    us   Hz   rad
[RF]
1      56.7916 1 2 100 0 2.04204
2      56.7916 1 2 100 0 4.08407
3      56.7916 1 2 100 0 1.88496
4      56.7916 1 2 100 0 1.72788
5      56.7916 1 2 100 0 3.61283
6      56.7916 1 2 100 0 1.25664
7      56.7916 1 2 100 0 0.942478
8      56.7916 1 2 100 0 2.67035
9      56.7916 1 2 100 0 0.15708
10      56.7916 1 2 100 0 5.96903
11      56.7916 1 2 100 0 4.86947
12      56.7916 1 2 100 0 4.24115
13      56.7916 1 2 100 0 5.65487
14      56.7916 1 2 100 0 2.82743
15      56.7916 1 2 100 0 3.29867
16      56.7916 1 2 100 0 0.314159
17      56.7916 1 2 100 0 0.471239
18      56.7916 1 2 100 0 2.51327
19      56.7916 1 2 100 0 3.45575
20      56.7916 1 2 100 0 5.18363
21      56.7916 1 2 100 0 1.09956
22      56.7916 1 2 100 0 4.39823
23      56.7916 1 2 100 0 5.81195
24      56.7916 1 2 100 0 5.02655

# Format of arbitrary gradients:
# id amplitude shape_id delay
# ..      Hz/m     ....    us
[GRADIENTS]
1  1.39992e+06 3 90
85      13020.8 4 90
169  1.33006e+06 5 90

# Format of trapezoid gradients:
# id amplitude rise flat fall delay
# ..      Hz/m   us   us   us    us
[TRAP]
 2 -2.09578e+06 340    0 340 600
 3      -724638 120  570 120 1050
 4   1.6276e+06 260  790 260   0
 5       759458 340    0 340 600
 6 -1.95333e+06 340    0 340 600
 7      -589803 260  790 260   0
 8  1.51698e+06 260  790 260   0
 9  1.54536e+06 340    0 340 600
10  1.41568e+06 340    0 340 600
11 -1.20014e+06 260  790 260   0
12 -1.09943e+06 260  790 260   0
13 -1.87946e+06 340    0 340 600
14       927322 340    0 340 600
15  1.45961e+06 260  790 260   0
16      -720168 260  790 260   0
17      -183225 340    0 340 600
18 -2.08776e+06 340    0 340 600
19       142294 260  790 260   0
20  1.62137e+06 260  790 260   0
21  2.01225e+06 340    0 340 600
22       585778 340    0 340 600
23 -1.56274e+06 260  790 260   0
24      -454921 260  790 260   0
25 -1.27515e+06 340    0 340 600
26  1.66321e+06 340    0 340 600
27       990298 260  790 260   0
28 -1.29167e+06 260  790 260   0
29 -1.08808e+06 340    0 340 600
30 -1.79119e+06 340    0 340 600
31       845017 260  790 260   0
32  1.39106e+06 260  790 260   0
33  2.06374e+06 340    0 340 600
34      -365047 340    0 340 600
35 -1.60272e+06 260  790 260   0
36       283499 260  790 260   0
37      -407613 340    0 340 600
38  2.05576e+06 340    0 340 600
39       316556 260  790 260   0
40 -1.59652e+06 260  790 260   0
41 -1.76833e+06 340    0 340 600
42 -1.12486e+06 340    0 340 600
43   1.3733e+06 260  790 260   0
44       873581 260  790 260   0
45  1.68921e+06 340    0 340 600
46 -1.24051e+06 340    0 340 600
47 -1.31185e+06 260  790 260   0
48       963396 260  790 260   0
49       544073 340    0 340 600
50  2.02393e+06 340    0 340 600
51      -422533 260  790 260   0
52  -1.5718e+06 260  790 260   0
53 -2.08352e+06 340    0 340 600
54      -226326 340    0 340 600
55  1.61809e+06 260  790 260   0
56       175767 260  790 260   0
57       965960 340    0 340 600
58  -1.8599e+06 340    0 340 600
59      -750174 260  790 260   0
60  1.44441e+06 260  790 260   0
61  1.38344e+06 340    0 340 600
62  1.57429e+06 340    0 340 600
63  -1.0744e+06 260  790 260   0
64 -1.22261e+06 260  790 260   0
65 -1.96861e+06 340    0 340 600
66       718933 340    0 340 600
67  1.52884e+06 260  790 260   0
68      -558331 260  790 260   0
69      43305.8 340    0 340 600
70 -2.09533e+06 340    0 340 600
71     -33631.7 260  790 260   0
72  1.62726e+06 260  790 260   0
73  1.93722e+06 340    0 340 600
74       799658 340    0 340 600
75 -1.50447e+06 260  790 260   0
76      -621023 260  790 260   0
77 -1.44731e+06 340    0 340 600
78  1.51578e+06 340    0 340 600
79    1.124e+06 260  790 260   0
80 -1.17717e+06 260  790 260   0
81      -888288 340    0 340 600
82 -1.89822e+06 340    0 340 600
83       689854 260  790 260   0
84  1.47418e+06 260  790 260   0
86     -2786.68 340    0 340 600
87  2.04082e+06 320  170 320 1050
88      2164.16 260  790 260   0
89       762055 340    0 340 600
90 -1.95232e+06 340    0 340 600
91      -591819 260  790 260   0
92  1.51619e+06 260  790 260   0
93  1.54348e+06 340    0 340 600
94  1.41773e+06 340    0 340 600
95 -1.19868e+06 260  790 260   0
96 -1.10103e+06 260  790 260   0
97 -1.88069e+06 340    0 340 600
98       924822 340    0 340 600
99  1.46056e+06 260  790 260   0
100      -718226 260  790 260   0
101      -180449 340    0 340 600
102   -2.088e+06 340    0 340 600
103       140138 260  790 260   0
104  1.62156e+06 260  790 260   0
105  2.01147e+06 340    0 340 600
106       588453 340    0 340 600
107 -1.56213e+06 260  790 260   0
108      -456999 260  790 260   0
109 -1.27736e+06 340    0 340 600
110  1.66152e+06 340    0 340 600
111       992014 260  790 260   0
112 -1.29035e+06 260  790 260   0
113  -1.0857e+06 340    0 340 600
114 -1.79264e+06 340    0 340 600
115       843167 260  790 260   0
116  1.39218e+06 260  790 260   0
117  2.06423e+06 340    0 340 600
118      -362303 340    0 340 600
119  -1.6031e+06 260  790 260   0
120       281368 260  790 260   0
121      -410346 340    0 340 600
122  2.05522e+06 340    0 340 600
123       318679 260  790 260   0
124  -1.5961e+06 260  790 260   0
125 -1.76683e+06 340    0 340 600
126 -1.12721e+06 340    0 340 600
127  1.37214e+06 260  790 260   0
128       875406 260  790 260   0
129  1.69085e+06 340    0 340 600
130 -1.23827e+06 340    0 340 600
131 -1.31313e+06 260  790 260   0
132       961651 260  790 260   0
133       541382 340    0 340 600
134  2.02465e+06 340    0 340 600
135      -420443 260  790 260   0
136 -1.57236e+06 260  790 260   0
137 -2.08322e+06 340    0 340 600
138      -229096 340    0 340 600
139  1.61785e+06 260  790 260   0
140       177918 260  790 260   0
141       968432 340    0 340 600
142 -1.85861e+06 340    0 340 600
143      -752094 260  790 260   0
144  1.44342e+06 260  790 260   0
145  1.38135e+06 340    0 340 600
146  1.57612e+06 340    0 340 600
147 -1.07277e+06 260  790 260   0
148 -1.22403e+06 260  790 260   0
149 -1.96956e+06 340    0 340 600
150       716315 340    0 340 600
151  1.52958e+06 260  790 260   0
152      -556298 260  790 260   0
153      46091.8 340    0 340 600
154 -2.09527e+06 340    0 340 600
155     -35795.4 260  790 260   0
156  1.62721e+06 260  790 260   0
157  1.93616e+06 340    0 340 600
158       802233 340    0 340 600
159 -1.50364e+06 260  790 260   0
160      -623023 260  790 260   0
161 -1.44932e+06 340    0 340 600
162  1.51385e+06 340    0 340 600
163  1.12556e+06 260  790 260   0
164 -1.17567e+06 260  790 260   0
165      -885763 340    0 340 600
166  -1.8994e+06 340    0 340 600
167       687893 260  790 260   0
168  1.47509e+06 260  790 260   0
170 -2.09572e+06 340    0 340 600
171       -15397 340    0 340 600
172       730299 120  570 120 1050
173  1.62756e+06 260  790 260   0
174      11957.5 260  790 260   0
175       773788 340    0 340 600
176  -1.9477e+06 340    0 340 600
177      -600932 260  790 260   0
178  1.51261e+06 260  790 260   0
179  1.53492e+06 340    0 340 600
180  1.42699e+06 340    0 340 600
181 -1.19204e+06 260  790 260   0
182 -1.10822e+06 260  790 260   0
183 -1.88622e+06 340    0 340 600
184       913489 340    0 340 600
185  1.46486e+06 260  790 260   0
186      -709425 260  790 260   0
187      -167882 340    0 340 600
188 -2.08904e+06 340    0 340 600
189       130379 260  790 260   0
190  1.62237e+06 260  790 260   0
191  2.00789e+06 340    0 340 600
192       600546 340    0 340 600
193 -1.55935e+06 260  790 260   0
194      -466390 260  790 260   0
195 -1.28734e+06 340    0 340 600
196   1.6538e+06 340    0 340 600
197       999760 260  790 260   0
198 -1.28436e+06 260  790 260   0
199  -1.0749e+06 340    0 340 600
200 -1.79914e+06 340    0 340 600
201       834775 260  790 260   0
202  1.39723e+06 260  790 260   0
203  2.06637e+06 340    0 340 600
204      -349875 340    0 340 600
205 -1.60476e+06 260  790 260   0
206       271717 260  790 260   0
207      -422705 340    0 340 600
208  2.05271e+06 340    0 340 600
209       328277 260  790 260   0
210 -1.59415e+06 260  790 260   0
211 -1.76001e+06 340    0 340 600
212 -1.13782e+06 340    0 340 600
213  1.36684e+06 260  790 260   0
214       883646 260  790 260   0
215  1.69827e+06 340    0 340 600
216 -1.22807e+06 340    0 340 600
217  -1.3189e+06 260  790 260   0
218       953732 260  790 260   0
219       529190 340    0 340 600
220  2.02787e+06 340    0 340 600
221      -410974 260  790 260   0
222 -1.57486e+06 260  790 260   0
223  -2.0818e+06 340    0 340 600
224      -241627 340    0 340 600
225  1.61675e+06 260  790 260   0
226       187650 260  790 260   0
227       979598 340    0 340 600
228 -1.85275e+06 340    0 340 600
229      -760766 260  790 260   0
230  1.43886e+06 260  790 260   0
231  1.37184e+06 340    0 340 600
232  1.58441e+06 340    0 340 600
233 -1.06539e+06 260  790 260   0
234 -1.23047e+06 260  790 260   0
235 -1.97384e+06 340    0 340 600
236       704451 340    0 340 600
237   1.5329e+06 260  790 260   0
238      -547084 260  790 260   0
239      58698.4 340    0 340 600
240 -2.09496e+06 340    0 340 600
241     -45585.7 260  790 260   0
242  1.62697e+06 260  790 260   0
243   1.9313e+06 340    0 340 600
244       813869 340    0 340 600
245 -1.49987e+06 260  790 260   0
246      -632059 260  790 260   0
247 -1.45841e+06 340    0 340 600
248  1.50511e+06 340    0 340 600
249  1.13261e+06 260  790 260   0
250 -1.16888e+06 260  790 260   0
251      -874318 340    0 340 600
252 -1.90469e+06 340    0 340 600
253       679005 260  790 260   0
254  1.47921e+06 260  790 260   0

# Format of ADC events:
# id num dwell delay freq phase
# ..  ..    ns    us   Hz   rad
[ADC]
1 512 1200 260 0 1.25664
2 512 1200 260 0 0.942478
3 512 1200 260 0 2.67035
4 512 1200 260 0 0.15708
5 512 1200 260 0 5.96903
6 512 1200 260 0 4.86947
7 512 1200 260 0 4.24115
8 512 1200 260 0 5.65487
9 512 1200 260 0 2.82743
10 512 1200 260 0 2.04204
11 512 1200 260 0 3.29867
12 512 1200 260 0 0.314159
13 512 1200 260 0 0.471239
14 512 1200 260 0 3.61283
15 512 1200 260 0 2.51327
16 512 1200 260 0 3.45575
17 512 1200 260 0 5.18363
18 512 1200 260 0 1.09956
19 512 1200 260 0 1.72788
20 512 1200 260 0 4.39823
21 512 1200 260 0 5.81195
22 512 1200 260 0 4.08407
23 512 1200 260 0 5.02655

# Format of delays:
# id delay (us)
[DELAYS]
1 1760

# Sequence Shapes
[SHAPES]

shape_id 1
num_samples 620
1e-07
6e-07
1.8e-06
3.4e-06
5.7e-06
8.5e-06
1.2e-05
1.59e-05
2.05e-05
2.58e-05
3.15e-05
3.8e-05
4.51e-05
5.27e-05
6.11e-05
6.99e-05
7.96e-05
8.98e-05
0.0001006
0.0001121
0.0001244
0.0001371
0.0001506
0.0001648
0.0001796
0.000195
0.0002112
0.000228
0.0002455
0.0002637
0.0002824
0.000302
0.0003222
0.0003429
0.0003646
0.0003867
0.0004095
0.0004331
0.0004574
0.0004822
0.0005077
0.000534
0.0005608
0.0005884
0.0006166
0.0006454
0.0006749
0.0007051
0.0007358
0.0007673
0.0007994
0.0008321
0.0008654
0.0008993
0.0009339
0.0009691
0.0010048
0.0010413
0.0010782
0.0011157
0.0011539
0.0011926
0.0012318
0.0012717
0.001312
0.0013529
0.0013944
0.0014363
0.0014788
0.0015218
0.0015652
0.0016092
0.0016537
0.0016985
0.0017438
0.0017897
0.0018358
0.0018826
0.0019295
0.001977
0.0020249
0.0020731
0.0021217
0.0021705
0.0022199
0.0022695
0.0023193
0.0023696
0.0024201
0.0024708
0.0025219
0.0025731
0.0026246
0.0026764
0.0027283
0.0027804
0.0028327
0.0028852
0.0029377
0.0029905
0.0030433
0.0030962
0.0031493
0.0032024
0.0032555
0.0033087
0.0033619
0.0034151
0.0034683
0.0035215
0.0035746
0.0036276
0.0036807
0.0037336
0.0037864
0.003839
0.0038916
0.0039439
0.0039962
0.0040481
0.0041
0.0041515
0.0042028
0.004254
0.0043047
0.0043552
0.0044054
0.0044553
0.0045048
0.004554
0.0046028
0.0046511
0.0046992
0.0047467
0.0047938
0.0048405
0.0048867
0.0049324
0.0049775
0.0050222
0.0050664
0.0051098
0.0051529
0.0051952
0.0052371
0.0052782
0.0053188
0.0053586
0.0053978
0.0054364
0.0054742
0.0055113
0.0055477
0.0055834
0.0056182
0.0056524
0.0056857
0.0057182
0.0057499
0.0057809
0.0058109
0.0058401
0.0058684
0.0058959
0.0059224
0.0059481
0.0059728
0.0059966
0.0060195
0.0060414
0.0060624
0.0060823
0.0061013
0.0061193
0.0061363
0.0061522
0.0061671
0.0061811
0.0061939
0.0062057
0.0062165
0.006226
0.0062347
0.0062421
0.0062486
0.0062538
0.006258
0.006261
0.0062629
0.0062638
0.0062634
0.0062619
0.0062593
0.0062555
0.0062505
0.0062444
0.0062371
0.0062287
0.0062191
0.0062082
0.0061963
0.0061831
0.0061687
0.0061532
0.0061365
0.0061185
0.0060994
0.0060791
0.0060577
0.0060349
0.0060111
0.005986
0.0059597
0.0059323
0.0059037
0.0058738
0.0058429
0.0058106
0.0057774
0.0057428
0.0057071
0.0056702
0.0056322
0.0055931
0.0055527
0.0055113
0.0054687
0.0054249
0.0053801
0.0053341
0.005287
0.0052387
0.0051895
0.0051391
0.0050877
0.0050351
0.0049814
0.0049269
0.0048711
0.0048144
0.0047566
0.0046979
0.0046381
0.0045773
0.0045155
0.0044529
0.0043892
0.0043245
0.004259
0.0041925
0.0041251
0.0040569
0.0039877
0.0039177
0.0038468
0.0037751
0.0037026
0.0036293
0.0035551
0.0034802
0.0034045
0.0033282
0.0032509
0.0031732
0.0030945
0.0030153
0.0029354
0.0028549
0.0027737
0.0026919
0.0026095
0.0025265
0.002443
0.0023589
0.0022744
0.0021893
0.0021036
0.0020177
0.0019311
0.0018442
0.0017569
0.0016691
0.0015811
0.0014926
0.0014038
0.0013147
0.0012253
0.0011357
0.0010458
0.0009555
0.0008653
0.0007747
0.0006839
0.0005931
0.000502
0.0004109
0.0003197
0.0002284
0.0001371
4.57e-05
-4.57e-05
-0.0001371
-0.0002284
-0.0003197
-0.0004109
-0.000502
-0.0005931
-0.0006839
-0.0007747
-0.0008653
-0.0009555
-0.0010458
-0.0011357
-0.0012253
-0.0013147
-0.0014038
-0.0014926
-0.0015811
-0.0016691
-0.0017569
-0.0018442
-0.0019311
-0.0020177
-0.0021036
-0.0021893
-0.0022744
-0.0023589
-0.002443
-0.0025265
-0.0026095
-0.0026919
-0.0027737
-0.0028549
-0.0029354
-0.0030153
-0.0030945
-0.0031732
-0.0032509
-0.0033282
-0.0034045
-0.0034802
-0.0035551
-0.0036293
-0.0037026
-0.0037751
-0.0038468
-0.0039177
-0.0039877
-0.0040569
-0.0041251
-0.0041925
-0.004259
-0.0043245
-0.0043892
-0.0044529
-0.0045155
-0.0045773
-0.0046381
-0.0046979
-0.0047566
-0.0048144
-0.0048711
-0.0049269
-0.0049814
-0.0050351
-0.0050877
-0.0051391
-0.0051895
-0.0052387
-0.005287
-0.0053341
-0.0053801
-0.0054249
-0.0054687
-0.0055113
-0.0055527
-0.0055931
-0.0056322
-0.0056702
-0.0057071
-0.0057428
-0.0057774
-0.0058106
-0.0058429
-0.0058738
-0.0059037
-0.0059323
-0.0059597
-0.005986
-0.0060111
-0.0060349
-0.0060577
-0.0060791
-0.0060994
-0.0061185
-0.0061365
-0.0061532
-0.0061687
-0.0061831
-0.0061963
-0.0062082
-0.0062191
-0.0062287
-0.0062371
-0.0062444
-0.0062505
-0.0062555
-0.0062593
-0.0062619
-0.0062634
-0.0062638
-0.0062629
-0.006261
-0.006258
-0.0062538
-0.0062486
-0.0062421
-0.0062347
-0.006226
-0.0062165
-0.0062057
-0.0061939
-0.0061811
-0.0061671
-0.0061522
-0.0061363
-0.0061193
-0.0061013
-0.0060823
-0.0060624
-0.0060414
-0.0060195
-0.0059966
-0.0059728
-0.0059481
-0.0059224
-0.0058959
-0.0058684
-0.0058401
-0.0058109
-0.0057809
-0.0057499
-0.0057182
-0.0056857
-0.0056524
-0.0056182
-0.0055834
-0.0055477
-0.0055113
-0.0054742
-0.0054364
-0.0053978
-0.0053586
-0.0053188
-0.0052782
-0.0052371
-0.0051952
-0.0051529
-0.0051098
-0.0050664
-0.0050222
-0.0049775
-0.0049324
-0.0048867
-0.0048405
-0.0047938
-0.0047467
-0.0046992
-0.0046511
-0.0046028
-0.004554
-0.0045048
-0.0044553
-0.0044054
-0.0043552
-0.0043047
-0.004254
-0.0042028
-0.0041515
-0.0041
-0.0040481
-0.0039962
-0.0039439
-0.0038916
-0.003839
-0.0037864
-0.0037336
-0.0036807
-0.0036276
-0.0035746
-0.0035215
-0.0034683
-0.0034151
-0.0033619
-0.0033087
-0.0032555
-0.0032024
-0.0031493
-0.0030962
-0.0030433
-0.0029905
-0.0029377
-0.0028852
-0.0028327
-0.0027804
-0.0027283
-0.0026764
-0.0026246
-0.0025731
-0.0025219
-0.0024708
-0.0024201
-0.0023696
-0.0023193
-0.0022695
-0.0022199
-0.0021705
-0.0021217
-0.0020731
-0.0020249
-0.001977
-0.0019295
-0.0018826
-0.0018358
-0.0017897
-0.0017438
-0.0016985
-0.0016537
-0.0016092
-0.0015652
-0.0015218
-0.0014788
-0.0014363
-0.0013944
-0.0013529
-0.001312
-0.0012717
-0.0012318
-0.0011926
-0.0011539
-0.0011157
-0.0010782
-0.0010413
-0.0010048
-0.0009691
-0.0009339
-0.0008993
-0.0008654
-0.0008321
-0.0007994
-0.0007673
-0.0007358
-0.0007051
-0.0006749
-0.0006454
-0.0006166
-0.0005884
-0.0005608
-0.000534
-0.0005077
-0.0004822
-0.0004574
-0.0004331
-0.0004095
-0.0003867
-0.0003646
-0.0003429
-0.0003222
-0.000302
-0.0002824
-0.0002637
-0.0002455
-0.000228
-0.0002112
-0.000195
-0.0001796
-0.0001648
-0.0001506
-0.0001371
-0.0001244
-0.0001121
-0.0001006
-8.98e-05
-7.96e-05
-6.99e-05
-6.11e-05
-5.27e-05
-4.51e-05
-3.8e-05
-3.15e-05
-2.58e-05
-2.05e-05
-1.59e-05
-1.2e-05
-8.5e-06
-5.7e-06
-3.4e-06
-1.8e-06
-6e-07
-1e-07
0
0
18

shape_id 2
num_samples 620
0
0
618

shape_id 3
num_samples 120
0.0046506
0.0046505
0
0
57
-0.0046505
-0.0273779
-0.0454545
-0.0454546
-0.0454545
-0.0454546
-0.0454545
-0.0454545
0
-0.0454546
-0.0454545
-0.0454546
-0.0454545
-0.0454546
-0.0454545
-0.0454546
-0.0454545
-0.0454546
-0.0454545
-0.0454545
0
-0.0454546
-0.0454545
-0.0454546
-0.0454545
-0.0227273
0
0
11
0.0227273
0.0454545
0.0454546
0.0454545
0.0454546
0.0454545
0.0454545
0
0.0454546
0.0454545
0.0454546
0.0454545
0.0454546
0.0454545
0.0454546
0.0454545
0.0454546
0.0454545
0.0454545
0
0.0454546
0.0454545
0.0454546
0.0454545

shape_id 4
num_samples 120
0.5
0.5
0
0
0
57
-0.5
-0.7675438
-0.2675439
0
0
53
0.2675439

shape_id 5
num_samples 120
0.0048948
0.0048949
0
0
57
-0.0048949
0.0189147
0.0476191
0.047619
0.0476191
0.047619
0.0476191
0.047619
0.0476191
0.047619
0.0476191
0.047619
0.047619
0
0.0476191
0.047619
0.0476191
0.047619
0.0476191
0.047619
0.0476191
0.047619
0.0476191
0.0238095
0
0
13
-0.0238095
-0.0476191
-0.047619
-0.0476191
-0.047619
-0.0476191
-0.047619
-0.0476191
-0.047619
-0.0476191
-0.047619
-0.047619
0
-0.0476191
-0.047619
-0.0476191
-0.047619
-0.0476191
-0.047619
-0.0476191
-0.047619
-0.0476191

