# Pulseq sequence file
# Created by MATLAB mr toolbox

[VERSION]
major 1
minor 3
revision 1

[DEFINITIONS]
FOV 0.256 0.256 0.256 
Name 3D_radial_stackOfStars 

# Format of blocks:
#  #  D RF  GX  GY  GZ ADC EXT
[BLOCKS]
   1  0  1   2   0   1  0  0
   2  1  0   4   0   3  0  0
   3  0  2   6   7   5  0  0
   4  1  0   9  10   8  0  0
   5  0  3  12  13  11  0  0
   6  1  0  15  16  14  0  0
   7  0  4  18  19  17  0  0
   8  1  0  21  22  20  0  0
   9  0  5  24  25  23  0  0
  10  1  0  27  28  26  0  0
  11  0  6  30  31  29  0  0
  12  1  0  33  34  32  0  0
  13  0  7  36  37  35  0  0
  14  1  0  39  40  38  0  0
  15  0  8  42  43  41  0  0
  16  1  0  45  46  44  0  0
  17  0  9  48  49  47  0  0
  18  1  0  51  52  50  0  0
  19  0 10  54  55  53  0  0
  20  1  0  57  58  56  0  0
  21  0  6  60  61  59  0  0
  22  1  0  63  64  62  0  0
  23  0 11  66  67  65  0  0
  24  1  0  69  70  68  0  0
  25  0 12  72  73  71  0  0
  26  1  0  75  76  74  0  0
  27  0 13  78  79  77  0  0
  28  1  0  81  82  80  0  0
  29  0 14  84  85  83  0  0
  30  1  0  87  88  86  0  0
  31  0  1  90  91  89  0  0
  32  1  0  93  94  92  0  0
  33  0 15  96  97  95  0  0
  34  1  0  99 100  98  0  0
  35  0 16 102 103 101  0  0
  36  1  0 105 106 104  0  0
  37  0 13 108 109 107  0  0
  38  1  0 111 112 110  0  0
  39  0 17 114 115 113  0  0
  40  1  0 117 118 116  0  0
  41  0  5 119 120   1  0  0
  42  1  0 121 122   3  0  0
  43  0 18 123 124   5  0  0
  44  1  0 125 126   8  0  0
  45  0 19 127 128  11  0  0
  46  1  0 129 130  14  0  0
  47  0  9 131 132  17  0  0
  48  1  0 133 134  20  0  0
  49  0 20 135 136  23  0  0
  50  1  0 137 138  26  0  0
  51  0 10 139 140  29  0  0
  52  1  0 141 142  32  0  0
  53  0 18 143 144  35  0  0
  54  1  0 145 146  38  0  0
  55  0 21 147 148  41  0  0
  56  1  0 149 150  44  0  0
  57  0  4 151 152  47  0  0
  58  1  0 153 154  50  0  0
  59  0 22 155 156  53  0  0
  60  1  0 157 158  56  0  0
  61  0 14 159 160  59  0  0
  62  1  0 161 162  62  0  0
  63  0 15 163 164  65  0  0
  64  1  0 165 166  68  0  0
  65  0 23 167 168  71  0  0
  66  1  0 169 170  74  0  0
  67  0  2 171 172  77  0  0
  68  1  0 173 174  80  0  0
  69  0 22 175 176  83  0  0
  70  1  0 177 178  86  0  0
  71  0 17 179 180  89  0  0
  72  1  0 181 182  92  0  0
  73  0 11 183 184  95  0  0
  74  1  0 185 186  98  0  0
  75  0 24 187 188 101  0  0
  76  1  0 189 190 104  0  0
  77  0  7 191 192 107  0  0
  78  1  0 193 194 110  0  0
  79  0 20 195 196 113  0  0
  80  1  0 197 198 116  0  0
  81  0 20 199 200   1  0  0
  82  1  0 201 202   3  0  0
  83  0  7 203 204   5  0  0
  84  1  0 205 206   8  0  0
  85  0 24 207 208  11  0  0
  86  1  0 209 210  14  0  0
  87  0 11 211 212  17  0  0
  88  1  0 213 214  20  0  0
  89  0 17 215 216  23  0  0
  90  1  0 217 218  26  0  0
  91  0 22 219 220  29  0  0
  92  1  0 221 222  32  0  0
  93  0  2 223 224  35  0  0
  94  1  0 225 226  38  0  0
  95  0 23 227 228  41  0  0
  96  1  0 229 230  44  0  0
  97  0 15 231 232  47  0  0
  98  1  0 233 234  50  0  0
  99  0 14 235 236  53  0  0
 100  1  0 237 238  56  0  0
 101  0 22 239 240  59  0  0
 102  1  0 241 242  62  0  0
 103  0  4 243 244  65  0  0
 104  1  0 245 246  68  0  0
 105  0 21 247 248  71  0  0
 106  1  0 249 250  74  0  0
 107  0 18 251 252  77  0  0
 108  1  0 253 254  80  0  0
 109  0 10 255 256  83  0  0
 110  1  0 257 258  86  0  0
 111  0 20 259 260  89  0  0
 112  1  0 261 262  92  0  0
 113  0  9 263 264  95  0  0
 114  1  0 265 266  98  0  0
 115  0 19 267 268 101  0  0
 116  1  0 269 270 104  0  0
 117  0 18 271 272 107  0  0
 118  1  0 273 274 110  0  0
 119  0  5 275 276 113  0  0
 120  1  0 277 278 116  0  0
 121  0 17 279 280   1  0  0
 122  1  0 281 282   3  0  0
 123  0 13 283 284   5  0  0
 124  1  0 285 286   8  0  0
 125  0 16 287 288  11  0  0
 126  1  0 289 290  14  0  0
 127  0 15 291 292  17  0  0
 128  1  0 293 294  20  0  0
 129  0  1 295 296  23  0  0
 130  1  0 297 298  26  0  0
 131  0 14 299 300  29  0  0
 132  1  0 301 302  32  0  0
 133  0 13 303 304  35  0  0
 134  1  0 305 306  38  0  0
 135  0 12 307 308  41  0  0
 136  1  0 309 310  44  0  0
 137  0 11 311 312  47  0  0
 138  1  0 313 314  50  0  0
 139  0  6 315 316  53  0  0
 140  1  0 317 318  56  0  0
 141  0 10 319 320  59  0  0
 142  1  0 321 322  62  0  0
 143  0  9 323 324  65  0  0
 144  1  0 325 326  68  0  0
 145  0  8 327 328  71  0  0
 146  1  0 329 330  74  0  0
 147  0  7 331 332  77  0  0
 148  1  0 333 334  80  0  0
 149  0  6 335 336  83  0  0
 150  1  0 337 338  86  0  0
 151  0  5 339 340  89  0  0
 152  1  0 341 342  92  0  0
 153  0  4 343 344  95  0  0
 154  1  0 345 346  98  0  0
 155  0  3 347 348 101  0  0
 156  1  0 349 350 104  0  0
 157  0  2 351 352 107  0  0
 158  1  0 353 354 110  0  0
 159  0  1 355 356 113  0  0
 160  1  0 357 358 116  0  0
 161  0  1 359 360   1  0  0
 162  1  0 361 362   3  0  0
 163  0  2 363 364   5  0  0
 164  1  0 365  81   8  0  0
 165  0  3 366 367  11  0  0
 166  1  0 368 369  14  0  0
 167  0  4 370 371  17  0  0
 168  1  0 372 373  20  0  0
 169  0  5 374 375  23  0  0
 170  1  0 376 377  26  0  0
 171  0  6 378 379  29  0  0
 172  1  0 380 381  32  0  0
 173  0  7 382 383  35  0  0
 174  1  0 384 385  38  0  0
 175  0  8 386 387  41  0  0
 176  1  0 388 389  44  0  0
 177  0  9 390 391  47  0  0
 178  1  0 392 393  50  0  0
 179  0 10 394 395  53  0  0
 180  1  0 396 397  56  0  0
 181  0  6 398 399  59  0  0
 182  1  0 400 401  62  0  0
 183  0 11 402 403  65  0  0
 184  1  0 404 405  68  0  0
 185  0 12 406 407  71  0  0
 186  1  0 408 409  74  0  0
 187  0 13 410 411  77  0  0
 188  1  0 412 413  80  0  0
 189  0 14 414 415  83  0  0
 190  1  0 416 417  86  0  0
 191  0  1 418 419  89  0  0
 192  1  0 420 421  92  0  0
 193  0 15 422 423  95  0  0
 194  1  0 424 425  98  0  0
 195  0 16 426 427 101  0  0
 196  1  0 428 429 104  0  0
 197  0 13 430 431 107  0  0
 198  1  0 432 433 110  0  0
 199  0 17 434 435 113  0  0
 200  1  0 436 437 116  0  0
 201  0  5 438 439   1  0  0
 202  1  0 440 441   3  0  0
 203  0 18 442 443   5  0  0
 204  1  0 444 445   8  0  0
 205  0 19 446 447  11  0  0
 206  1  0 448 449  14  0  0
 207  0  9 450 451  17  0  0
 208  1  0 452 453  20  0  0
 209  0 20 454 455  23  0  0
 210  1  0 456 457  26  0  0
 211  0 10 458 459  29  0  0
 212  1  0 460 461  32  0  0
 213  0 18 462 463  35  0  0
 214  1  0 464 465  38  0  0
 215  0 21 466 467  41  0  0
 216  1  0 468 469  44  0  0
 217  0  4 470 471  47  0  0
 218  1  0 472 473  50  0  0
 219  0 22 474 475  53  0  0
 220  1  0 476 477  56  0  0
 221  0 14 478 479  59  0  0
 222  1  0 480 481  62  0  0
 223  0 15 482 483  65  0  0
 224  1  0 484 485  68  0  0
 225  0 23 486 487  71  0  0
 226  1  0 488 489  74  0  0
 227  0  2 490 491  77  0  0
 228  1  0 492 493  80  0  0
 229  0 22 494 495  83  0  0
 230  1  0 496 497  86  0  0
 231  0 17 498 499  89  0  0
 232  1  0 500 501  92  0  0
 233  0 11 502 503  95  0  0
 234  1  0 504 505  98  0  0
 235  0 24 506 507 101  0  0
 236  1  0 508 509 104  0  0
 237  0  7 510 511 107  0  0
 238  1  0 512 513 110  0  0
 239  0 20 514 515 113  0  0
 240  1  0 516 517 116  0  0
 241  0 20 518 519   1  0  0
 242  1  0 520 521   3  0  0
 243  0  7 522 523   5  0  0
 244  1  0 524 525   8  0  0
 245  0 24 526 527  11  0  0
 246  1  0 528 529  14  0  0
 247  0 11 530 531  17  0  0
 248  1  0 532 533  20  0  0
 249  0 17 534 535  23  0  0
 250  1  0 536 537  26  0  0
 251  0 22 538 539  29  0  0
 252  1  0 540 541  32  0  0
 253  0  2 542 543  35  0  0
 254  1  0 544 545  38  0  0
 255  0 23 546 547  41  0  0
 256  1  0 548 549  44  0  0
 257  0 15 550 551  47  0  0
 258  1  0 552 553  50  0  0
 259  0 14 554 555  53  0  0
 260  1  0 556 557  56  0  0
 261  0 22 558 559  59  0  0
 262  1  0 560 561  62  0  0
 263  0  4 562 563  65  0  0
 264  1  0 564 565  68  0  0
 265  0 21 566 567  71  0  0
 266  1  0 568 569  74  0  0
 267  0 18 570 571  77  0  0
 268  1  0 572 573  80  0  0
 269  0 10 574 575  83  0  0
 270  1  0 576 577  86  0  0
 271  0 20 578 579  89  0  0
 272  1  0 580 581  92  0  0
 273  0  9 582 583  95  0  0
 274  1  0 584 585  98  0  0
 275  0 19 586 587 101  0  0
 276  1  0 588 589 104  0  0
 277  0 18 590 591 107  0  0
 278  1  0 592 593 110  0  0
 279  0  5 594 595 113  0  0
 280  1  0 596 597 116  0  0
 281  0 17 598 599   1  0  0
 282  1  0 600 601   3  0  0
 283  0 13 602 603   5  0  0
 284  1  0 604 605   8  0  0
 285  0 16 606 607  11  0  0
 286  1  0 608 609  14  0  0
 287  0 15 610 611  17  0  0
 288  1  0 612 613  20  0  0
 289  0  1 614 615  23  0  0
 290  1  0 616 617  26  0  0
 291  0 14 618 619  29  0  0
 292  1  0 620 621  32  0  0
 293  0 13 622 623  35  0  0
 294  1  0 624 625  38  0  0
 295  0 12 626 627  41  0  0
 296  1  0 628 629  44  0  0
 297  0 11 630 631  47  0  0
 298  1  0 632 633  50  0  0
 299  0  6 634 635  53  0  0
 300  1  0 636 637  56  0  0
 301  0 10 638 639  59  0  0
 302  1  0 640 641  62  0  0
 303  0  9 642 643  65  0  0
 304  1  0 644 645  68  0  0
 305  0  8 646 647  71  0  0
 306  1  0 648 649  74  0  0
 307  0  7 650 651  77  0  0
 308  1  0 652 653  80  0  0
 309  0  6 654 655  83  0  0
 310  1  0 656 657  86  0  0
 311  0  5 658 659  89  0  0
 312  1  0 660 661  92  0  0
 313  0  4 662 663  95  0  0
 314  1  0 664 665  98  0  0
 315  0  3 666 667 101  0  0
 316  1  0 668 669 104  0  0
 317  0  2 670 671 107  0  0
 318  1  0 672 673 110  0  0
 319  0  1 674 675 113  0  0
 320  1  0 676 677 116  0  0
 321  0  1 678 679   1  0  0
 322  1  0 680 681   3  0  0
 323  0  2 682 683   5  0  0
 324  1  0 684 685   8  0  0
 325  0  3 686 687  11  0  0
 326  1  0 688 689  14  0  0
 327  0  4 690 691  17  0  0
 328  1  0 692 693  20  0  0
 329  0  5 694 695  23  0  0
 330  1  0 696 697  26  0  0
 331  0  6 698 699  29  0  0
 332  1  0 700 701  32  0  0
 333  0  7 702 703  35  0  0
 334  1  0 704 705  38  0  0
 335  0  8 706 707  41  0  0
 336  1  0 708 709  44  0  0
 337  0  9 710 711  47  0  0
[RF]
1      85.1875 1 2 100 0 2.04204
2      85.1875 1 2 100 0 4.08407
3      85.1875 1 2 100 0 1.88496
4      85.1875 1 2 100 0 1.72788
5      85.1875 1 2 100 0 3.61283
6      85.1875 1 2 100 0 1.25664
7      85.1875 1 2 100 0 0.942478
8      85.1875 1 2 100 0 2.67035
9      85.1875 1 2 100 0 0.15708
10      85.1875 1 2 100 0 5.96903
11      85.1875 1 2 100 0 4.86947
12      85.1875 1 2 100 0 4.24115
13      85.1875 1 2 100 0 5.65487
14      85.1875 1 2 100 0 2.82743
15      85.1875 1 2 100 0 3.29867
16      85.1875 1 2 100 0 0.314159
17      85.1875 1 2 100 0 0.471239
18      85.1875 1 2 100 0 2.51327
19      85.1875 1 2 100 0 3.45575
20      85.1875 1 2 100 0 5.18363
21      85.1875 1 2 100 0 1.09956
22      85.1875 1 2 100 0 4.39823
23      85.1875 1 2 100 0 5.81195
24      85.1875 1 2 100 0 5.02655

# Format of arbitrary gradients:
# id amplitude shape_id delay
# ..      Hz/m     ....    us
[GRADIENTS]
1       358887 3 90
5       301232 4 90
11       251814 5 90
17       223912 6 90
23       182943 7 90
29       156901 8 90
35       122681 9 90
41      98266.6 10 90
47      73852.5 11 90
53      46530.3 12 90
59      23552.4 13 90
65      19531.3 14 90
71      22403.5 15 90
77      45381.4 16 90
83      72631.8 17 90
89      97045.9 18 90
95       121460 19 90
101       155599 20 90
107       181641 21 90
113       222517 22 90

# Format of trapezoid gradients:
# id amplitude rise flat fall delay
# ..      Hz/m   us   us   us    us
[TRAP]
 2      -928277 150    0 150 390
 3      -186012  30  180  30 960
 4       406901  70  890  70   0
 6      -924312 150    0 150 390
 7     -85704.1 150    0 150 390
 8      -214844  40  160  40 960
 9       405163  70  890  70   0
10      37567.5  70  890  70   0
12      -927698 150    0 150 390
13     -32775.9 150    0 150 390
14      -234375  40  160  40 960
15       406647  70  890  70   0
16        14367  70  890  70   0
18      -920710 150    0 150 390
19      -118287 150    0 150 390
20      -253906  40  160  40 960
21       403584  70  890  70   0
22      51849.8  70  890  70   0
24      -925962 150    0 150 390
25       -65511 150    0 150 390
26      -287829  50  140  50 960
27       405886  70  890  70   0
28      28716.1  70  890  70   0
30      -928192 150    0 150 390
31     -12521.5 150    0 150 390
32      -308388  50  140  50 960
33       406864  70  890  70   0
34      5488.68  70  890  70   0
36      -923072 150    0 150 390
37     -98164.3 150    0 150 390
38      -347222  60  120  60 960
39       404619  70  890  70   0
40      43029.4  70  890  70   0
42      -927172 150    0 150 390
43     -45286.6 150    0 150 390
44      -368924  60  120  60 960
45       406417  70  890  70   0
46        19851  70  890  70   0
48      -919030 150    0 150 390
49      -130695 150    0 150 390
50      -413603  70  100  70 960
51       402848  70  890  70   0
52        57289  70  890  70   0
54      -924994 150    0 150 390
55     -77995.3 150    0 150 390
56      -436581  70  100  70 960
57       405462  70  890  70   0
58      34188.5  70  890  70   0
60      -927939 150    0 150 390
61     -25040.7 150    0 150 390
62       488281  80   80  80 960
63       406753  70  890  70   0
64      10976.4  70  890  70   0
66      -921664 150    0 150 390
67      -110607 150    0 150 390
68       436581  70  100  70 960
69       404002  70  890  70   0
70      48483.4  70  890  70   0
72      -926476 150    0 150 390
73     -57789.1 150    0 150 390
74       413603  70  100  70 960
75       406112  70  890  70   0
76      25331.3  70  890  70   0
78      -928265 150    0 150 390
79     -4782.92 150    0 150 390
80       368924  60  120  60 960
81       406896  70  890  70   0
82      2096.54  70  890  70   0
84      -923858 150    0 150 390
85     -90465.4 150    0 150 390
86       347222  60  120  60 960
87       404964  70  890  70   0
88      39654.6  70  890  70   0
90      -927517 150    0 150 390
91     -37555.4 150    0 150 390
92       308388  50  140  50 960
93       406568  70  890  70   0
94        16462  70  890  70   0
96      -920088 150    0 150 390
97      -123029 150    0 150 390
98       287829  50  140  50 960
99       403312  70  890  70   0
100      53928.5  70  890  70   0
102      -925613 150    0 150 390
103     -70281.1 150    0 150 390
104       253906  40  160  40 960
105       405733  70  890  70   0
106        30807  70  890  70   0
108      -928116 150    0 150 390
109     -17303.8 150    0 150 390
110       234375  40  160  40 960
111       406830  70  890  70   0
112      7584.96  70  890  70   0
114      -922554 150    0 150 390
115      -102919 150    0 150 390
116       214844  40  160  40 960
117       404392  70  890  70   0
118      45113.6  70  890  70   0
119       336384 150    0 150 390
120      -865184 150    0 150 390
121      -147451  70  890  70   0
122       379245  70  890  70   0
123       414826 150    0 150 390
124      -830432 150    0 150 390
125      -181835  70  890  70   0
126       364012  70  890  70   0
127       366723 150    0 150 390
128      -852768 150    0 150 390
129      -160749  70  890  70   0
130       373802  70  890  70   0
131       443889 150    0 150 390
132      -815267 150    0 150 390
133      -194574  70  890  70   0
134       357364  70  890  70   0
135       396604 150    0 150 390
136      -839287 150    0 150 390
137      -173847  70  890  70   0
138       367893  70  890  70   0
139       348024 150    0 150 390
140      -860568 150    0 150 390
141      -152553  70  890  70   0
142       377221  70  890  70   0
143       425990 150    0 150 390
144      -824761 150    0 150 390
145      -186729  70  890  70   0
146       361526  70  890  70   0
147       378192 150    0 150 390
148      -847743 150    0 150 390
149      -165777  70  890  70   0
150       371600  70  890  70   0
151       454846 150    0 150 390
152      -809205 150    0 150 390
153      -199377  70  890  70   0
154       354707  70  890  70   0
155       407889 150    0 150 390
156      -833861 150    0 150 390
157      -178794  70  890  70   0
158       365515  70  890  70   0
159       359601 150    0 150 390
160      -855795 150    0 150 390
161      -157627  70  890  70   0
162       375129  70  890  70   0
163       437077 150    0 150 390
164      -818939 150    0 150 390
165      -191588  70  890  70   0
166       358974  70  890  70   0
167       389593 150    0 150 390
168      -842565 150    0 150 390
169      -170774  70  890  70   0
170       369330  70  890  70   0
171       340838 150    0 150 390
172      -863439 150    0 150 390
173      -149403  70  890  70   0
174       378480  70  890  70   0
175       419100 150    0 150 390
176      -828283 150    0 150 390
177      -183708  70  890  70   0
178       363070  70  890  70   0
179       371112 150    0 150 390
180      -850867 150    0 150 390
181      -162673  70  890  70   0
182       372969  70  890  70   0
183       448084 150    0 150 390
184      -812969 150    0 150 390
185      -196413  70  890  70   0
186       356357  70  890  70   0
187       400923 150    0 150 390
188      -837233 150    0 150 390
189      -175741  70  890  70   0
190       366993  70  890  70   0
191       352454 150    0 150 390
192      -858763 150    0 150 390
193      -154495  70  890  70   0
194       376430  70  890  70   0
195       430234 150    0 150 390
196      -822555 150    0 150 390
197      -188589  70  890  70   0
198       360559  70  890  70   0
199       684483 150    0 150 390
200       627042 150    0 150 390
201      -300036  70  890  70   0
202      -274858  70  890  70   0
203       623667 150    0 150 390
204       687559 150    0 150 390
205      -273378  70  890  70   0
206      -301385  70  890  70   0
207       661916 150    0 150 390
208       650819 150    0 150 390
209      -290144  70  890  70   0
210      -285280  70  890  70   0
211       599001 150    0 150 390
212       709151 150    0 150 390
213      -262566  70  890  70   0
214      -310849  70  890  70   0
215       638524 150    0 150 390
216       673784 150    0 150 390
217      -279891  70  890  70   0
218      -295347  70  890  70   0
219       675962 150    0 150 390
220       636218 150    0 150 390
221      -296301  70  890  70   0
222      -278880  70  890  70   0
223       614335 150    0 150 390
224       695909 150    0 150 390
225      -269288  70  890  70   0
226      -305045  70  890  70   0
227       653077 150    0 150 390
228       659688 150    0 150 390
229      -286270  70  890  70   0
230      -289168  70  890  70   0
231       589381 150    0 150 390
232       717167 150    0 150 390
233      -258349  70  890  70   0
234      -314363  70  890  70   0
235       629377 150    0 150 390
236       682336 150    0 150 390
237      -275881  70  890  70   0
238      -299095  70  890  70   0
239       667319 150    0 150 390
240       645278 150    0 150 390
241      -292513  70  890  70   0
242      -282851  70  890  70   0
243       604892 150    0 150 390
244       704133 150    0 150 390
245      -265149  70  890  70   0
246      -308650  70  890  70   0
247       644119 150    0 150 390
248       668438 150    0 150 390
249      -282343  70  890  70   0
250      -293003  70  890  70   0
251       681243 150    0 150 390
252       630560 150    0 150 390
253      -298616  70  890  70   0
254      -276400  70  890  70   0
255       620116 150    0 150 390
256       690764 150    0 150 390
257      -271822  70  890  70   0
258      -302789  70  890  70   0
259       658554 150    0 150 390
260       654221 150    0 150 390
261      -288671  70  890  70   0
262      -286771  70  890  70   0
263       595339 150    0 150 390
264       712228 150    0 150 390
265      -260961  70  890  70   0
266      -312198  70  890  70   0
267       635044 150    0 150 390
268       677065 150    0 150 390
269      -278365  70  890  70   0
270      -296785  70  890  70   0
271       672675 150    0 150 390
272       639692 150    0 150 390
273      -294860  70  890  70   0
274      -280403  70  890  70   0
275       610742 150    0 150 390
276       699066 150    0 150 390
277      -267713  70  890  70   0
278      -306429  70  890  70   0
279      -832463 150    0 150 390
280       410736 150    0 150 390
281       364902  70  890  70   0
282      -180042  70  890  70   0
283      -866829 150    0 150 390
284       332123 150    0 150 390
285       379966  70  890  70   0
286      -145583  70  890  70   0
287      -846446 150    0 150 390
288       381087 150    0 150 390
289       371031  70  890  70   0
290      -167046  70  890  70   0
291      -878015 150    0 150 390
292       301310 150    0 150 390
293       384869  70  890  70   0
294      -132076  70  890  70   0
295      -859374 150    0 150 390
296       350962 150    0 150 390
297       376698  70  890  70   0
298      -153841  70  890  70   0
299      -837927 150    0 150 390
300       399469 150    0 150 390
301       367297  70  890  70   0
302      -175103  70  890  70   0
303      -871230 150    0 150 390
304       320400 150    0 150 390
305       381895  70  890  70   0
306      -140444  70  890  70   0
307      -851510 150    0 150 390
308       369634 150    0 150 390
309       373251  70  890  70   0
310      -162026  70  890  70   0
311      -881999 150    0 150 390
312       289439 150    0 150 390
313       386616  70  890  70   0
314      -126873  70  890  70   0
315      -864030 150    0 150 390
316       339338 150    0 150 390
317       378739  70  890  70   0
318      -148746  70  890  70   0
319      -843240 150    0 150 390
320       388130 150    0 150 390
321       369626  70  890  70   0
322      -170133  70  890  70   0
323      -875473 150    0 150 390
324       308619 150    0 150 390
325       383755  70  890  70   0
326      -135280  70  890  70   0
327      -856418 150    0 150 390
328       358115 150    0 150 390
329       375402  70  890  70   0
330      -156976  70  890  70   0
331      -834568 150    0 150 390
332       406441 150    0 150 390
333       365825  70  890  70   0
334      -178159  70  890  70   0
335      -868529 150    0 150 390
336       327653 150    0 150 390
337       380711  70  890  70   0
338      -143623  70  890  70   0
339      -848398 150    0 150 390
340       376720 150    0 150 390
341       371887  70  890  70   0
342      -165132  70  890  70   0
343      -879556 150    0 150 390
344       296782 150    0 150 390
345       385545  70  890  70   0
346      -130091  70  890  70   0
347      -861171 150    0 150 390
348       346530 150    0 150 390
349       377486  70  890  70   0
350      -151898  70  890  70   0
351      -839975 150    0 150 390
352       395146 150    0 150 390
353       368195  70  890  70   0
354      -173209  70  890  70   0
355      -872869 150    0 150 390
356       315907 150    0 150 390
357       382614  70  890  70   0
358      -138475  70  890  70   0
359     -81155.3 150    0 150 390
360      -924723 150    0 150 390
361      35573.6  70  890  70   0
362       405343  70  890  70   0
363      4567.28 150    0 150 390
364      -928266 150    0 150 390
365     -2002.02  70  890  70   0
366     -48454.3 150    0 150 390
367      -927011 150    0 150 390
368      21239.4  70  890  70   0
369       406346  70  890  70   0
370        37340 150    0 150 390
371      -927526 150    0 150 390
372     -16367.6  70  890  70   0
373       406572  70  890  70   0
374     -15692.8 150    0 150 390
375      -928144 150    0 150 390
376      6878.78  70  890  70   0
377       406843  70  890  70   0
378     -68674.3 150    0 150 390
379      -925733 150    0 150 390
380      30102.7  70  890  70   0
381       405786  70  890  70   0
382      17088.2 150    0 150 390
383      -928120 150    0 150 390
384     -7490.45  70  890  70   0
385       406832  70  890  70   0
386     -35945.4 150    0 150 390
387      -927581 150    0 150 390
388      15756.3  70  890  70   0
389       406596  70  890  70   0
390      49847.9 150    0 150 390
391      -926938 150    0 150 390
392     -21850.4  70  890  70   0
393       406314  70  890  70   0
394     -3171.65 150    0 150 390
395      -928271 150    0 150 390
396      1390.26  70  890  70   0
397       406899  70  890  70   0
398     -56180.9 150    0 150 390
399      -926575 150    0 150 390
400      24626.3  70  890  70   0
401       406155  70  890  70   0
402      29606.1 150    0 150 390
403      -927805 150    0 150 390
404     -12977.5  70  890  70   0
405       406694  70  890  70   0
406       -23430 150    0 150 390
407      -927981 150    0 150 390
408      10270.3  70  890  70   0
409       406771  70  890  70   0
410     -76389.6 150    0 150 390
411      -925128 150    0 150 390
412      33484.6  70  890  70   0
413       405521  70  890  70   0
414      9350.08 150    0 150 390
415      -928230 150    0 150 390
416     -4098.51  70  890  70   0
417       406880  70  890  70   0
418     -43677.2 150    0 150 390
419      -927249 150    0 150 390
420      19145.5  70  890  70   0
421       406450  70  890  70   0
422      42118.5 150    0 150 390
423      -927321 150    0 150 390
424     -18462.2  70  890  70   0
425       406482  70  890  70   0
426     -10910.4 150    0 150 390
427      -928213 150    0 150 390
428      4782.45  70  890  70   0
429       406873  70  890  70   0
430     -63903.6 150    0 150 390
431      -926075 150    0 150 390
432      28011.5  70  890  70   0
433       405936  70  890  70   0
434      21870.1 150    0 150 390
435      -928019 150    0 150 390
436     -9586.54  70  890  70   0
437       406788  70  890  70   0
438       891280 150    0 150 390
439       259457 150    0 150 390
440      -390684  70  890  70   0
441      -113730  70  890  70   0
442       863519 150    0 150 390
443       340637 150    0 150 390
444      -378515  70  890  70   0
445      -149315  70  890  70   0
446       881563 150    0 150 390
447       290765 150    0 150 390
448      -386425  70  890  70   0
449      -127454  70  890  70   0
450       850953 150    0 150 390
451       370914 150    0 150 390
452      -373007  70  890  70   0
453      -162587  70  890  70   0
454       870747 150    0 150 390
455       321710 150    0 150 390
456      -381683  70  890  70   0
457      -141018  70  890  70   0
458       887699 150    0 150 390
459       271456 150    0 150 390
460      -389114  70  890  70   0
461      -118990  70  890  70   0
462       858845 150    0 150 390
463       352254 150    0 150 390
464      -376466  70  890  70   0
465      -154407  70  890  70   0
466       877561 150    0 150 390
467       302630 150    0 150 390
468      -384670  70  890  70   0
469      -132655  70  890  70   0
470       845872 150    0 150 390
471       382359 150    0 150 390
472      -370780  70  890  70   0
473      -167603  70  890  70   0
474       866328 150    0 150 390
475       333426 150    0 150 390
476      -379747  70  890  70   0
477      -146154  70  890  70   0
478       883957 150    0 150 390
479       283405 150    0 150 390
480      -387474  70  890  70   0
481      -124228  70  890  70   0
482       854016 150    0 150 390
483       363807 150    0 150 390
484      -374349  70  890  70   0
485      -159471  70  890  70   0
486       873399 150    0 150 390
487       314440 150    0 150 390
488      -382846  70  890  70   0
489      -137831  70  890  70   0
490       889931 150    0 150 390
491       264046 150    0 150 390
492      -390093  70  890  70   0
493      -115742  70  890  70   0
494       861752 150    0 150 390
495       345082 150    0 150 390
496      -377741  70  890  70   0
497      -151263  70  890  70   0
498       880053 150    0 150 390
499       295303 150    0 150 390
500      -385763  70  890  70   0
501      -129443  70  890  70   0
502       849030 150    0 150 390
503       375294 150    0 150 390
504      -372164  70  890  70   0
505      -164506  70  890  70   0
506       869078 150    0 150 390
507       326192 150    0 150 390
508      -380952  70  890  70   0
509      -142983  70  890  70   0
510       886289 150    0 150 390
511       276026 150    0 150 390
512      -388496  70  890  70   0
513      -120993  70  890  70   0
514       857019 150    0 150 390
515       356675 150    0 150 390
516      -375666  70  890  70   0
517      -156345  70  890  70   0
518      -564800 150    0 150 390
519       736681 150    0 150 390
520       247574  70  890  70   0
521      -322917  70  890  70   0
522      -630402 150    0 150 390
523       681389 150    0 150 390
524       276331  70  890  70   0
525      -298680  70  890  70   0
526      -590459 150    0 150 390
527       716280 150    0 150 390
528       258822  70  890  70   0
529      -313974  70  890  70   0
530      -654068 150    0 150 390
531       658706 150    0 150 390
532       286704  70  890  70   0
533      -288737  70  890  70   0
534      -615381 150    0 150 390
535       694985 150    0 150 390
536       269746  70  890  70   0
537      -304640  70  890  70   0
538      -574685 150    0 150 390
539       728996 150    0 150 390
540       251908  70  890  70   0
541      -319548  70  890  70   0
542      -639536 150    0 150 390
543       672824 150    0 150 390
544       280334  70  890  70   0
545      -294926  70  890  70   0
546      -600067 150    0 150 390
547       708250 150    0 150 390
548       263033  70  890  70   0
549      -310454  70  890  70   0
550      -662894 150    0 150 390
551       649823 150    0 150 390
552       290573  70  890  70   0
553      -284844  70  890  70   0
554      -624700 150    0 150 390
555       686621 150    0 150 390
556       273831  70  890  70   0
557      -300974  70  890  70   0
558      -584467 150    0 150 390
559       721177 150    0 150 390
560       256195  70  890  70   0
561      -316121  70  890  70   0
562      -648554 150    0 150 390
563       664136 150    0 150 390
564       284287  70  890  70   0
565      -291117  70  890  70   0
566      -609566 150    0 150 390
567       700091 150    0 150 390
