# Pulseq sequence file
# Created by MATLAB mr toolbox

[VERSION]
major 1
minor 3
revision 1

[DEFINITIONS]
FOV 0.256 0.256 0.256 
Name 3D_radial_stackOfStars 

# Format of blocks:
#  #  D RF  GX  GY  GZ ADC EXT
[BLOCKS]
  1  0  1   2   0   1  0  0
  2  1  0   4   0   3  0  0
  3  0  2   6   7   5  0  0
  4  1  0   9  10   8  0  0
  5  0  3  12  13  11  0  0
  6  1  0  15  16  14  0  0
  7  0  4  18  19  17  0  0
  8  1  0  21  22  20  0  0
  9  0  5  24  25  23  0  0
 10  1  0  27  28  26  0  0
 11  0  6   2   0   1  0  0
 12  1  0   4   0   3  1  0
 13  0  7   6   7   5  0  0
 14  1  0   9  10   8  2  0
 15  0  8  12  13  11  0  0
 16  1  0  15  16  14  3  0
 17  0  9  18  19  17  0  0
 18  1  0  21  22  20  4  0
 19  0 10  24  25  23  0  0
 20  1  0  27  28  26  5  0
 21  0  6  30  31  29  0  0
 22  1  0  33  34  32  1  0
 23  0 11  36  37  35  0  0
 24  1  0  39  40  38  6  0
 25  0 12  42  43  41  0  0
 26  1  0  45  46  44  7  0
 27  0 13  48  49  47  0  0
 28  1  0  51  52  50  8  0
 29  0 14  54  55  53  0  0
 30  1  0  57  58  56  9  0
 31  0  1  60  61  59  0  0
 32  1  0  63  64  62 10  0
 33  0 15  66  67  65  0  0
 34  1  0  69  70  68 11  0
 35  0 16  72  73  71  0  0
 36  1  0  75  76  74 12  0
 37  0 13  78  79  77  0  0
 38  1  0  81  82  80  8  0
 39  0 17  84  85  83  0  0
 40  1  0  87  88  86 13  0
 41  0  5  90  91  89  0  0
 42  1  0  93  94  92 14  0
 43  0 18  96  97  95  0  0
 44  1  0  99 100  98 15  0
 45  0 19 102 103 101  0  0
 46  1  0 105 106 104 16  0
 47  0  9 108 109 107  0  0
 48  1  0 111 112 110  4  0
 49  0 20 114 115 113  0  0
 50  1  0 117 118 116 17  0
 51  0 10 119 120   1  0  0
 52  1  0 121 122   3  5  0
 53  0 18 123 124   5  0  0
 54  1  0 125 126   8 15  0
 55  0 21 127 128  11  0  0
 56  1  0 129 130  14 18  0
 57  0  4 131 132  17  0  0
 58  1  0 133 134  20 19  0
 59  0 22 135 136  23  0  0
 60  1  0 137 138  26 20  0
 61  0 14 139 140  29  0  0
 62  1  0 141 142  32  9  0
 63  0 15 143 144  35  0  0
 64  1  0 145 146  38 11  0
 65  0 23 147 148  41  0  0
 66  1  0 149 150  44 21  0
 67  0  2 151 152  47  0  0
 68  1  0 153 154  50 22  0
 69  0 22 155 156  53  0  0
 70  1  0 157 158  56 20  0
 71  0 17 159 160  59  0  0
 72  1  0 161 162  62 13  0
 73  0 11 163 164  65  0  0
 74  1  0 165 166  68  6  0
 75  0 24 167 168  71  0  0
 76  1  0 169 170  74 23  0
 77  0  7 171 172  77  0  0
 78  1  0 173 174  80  2  0
 79  0 20 175 176  83  0  0
 80  1  0 177 178  86 17  0
 81  0 20 179 180  89  0  0
 82  1  0 181 182  92 17  0
 83  0  7 183 184  95  0  0
 84  1  0 185 186  98  2  0
 85  0 24 187 188 101  0  0
 86  1  0 189 190 104 23  0
 87  0 11 191 192 107  0  0
 88  1  0 193 194 110  6  0
 89  0 17 195 196 113  0  0
 90  1  0 197 198 116 13  0
 91  0 22 199 200   1  0  0
 92  1  0 201 202   3 20  0
 93  0  2 203 204   5  0  0
 94  1  0 205 206   8 22  0
 95  0 23 207 208  11  0  0
 96  1  0 209 210  14 21  0
 97  0 15 211 212  17  0  0
 98  1  0 213 214  20 11  0
 99  0 14 215 216  23  0  0
100  1  0 217 218  26  9  0
101  0 22 219 220  29  0  0
102  1  0 221 222  32 20  0
103  0  4 223 224  35  0  0
104  1  0 225 226  38 19  0
105  0 21 227 228  41  0  0
106  1  0 229 230  44 18  0
107  0 18 231 232  47  0  0
108  1  0 233 234  50 15  0
109  0 10 235 236  53  0  0
110  1  0 237 238  56  5  0
111  0 20 239 240  59  0  0
112  1  0 241 242  62 17  0
113  0  9 243 244  65  0  0
114  1  0 245 246  68  4  0
115  0 19 247 248  71  0  0
116  1  0 249 250  74 16  0
117  0 18 251 252  77  0  0
118  1  0 253 254  80 15  0
119  0  5 255 256  83  0  0
120  1  0 257 258  86 14  0
121  0 17 259 260  89  0  0
122  1  0 261 262  92 13  0
123  0 13 263 264  95  0  0
124  1  0 265 266  98  8  0
125  0 16 267 268 101  0  0
126  1  0 269 270 104 12  0
127  0 15 271 272 107  0  0
128  1  0 273 274 110 11  0
129  0  1 275 276 113  0  0
130  1  0 277 278 116 10  0
131  0 14 279 280   1  0  0
132  1  0 281 282   3  9  0
133  0 13 283 284   5  0  0
134  1  0 285 286   8  8  0
135  0 12 287 288  11  0  0
136  1  0 289 290  14  7  0
137  0 11 291 292  17  0  0
138  1  0 293 294  20  6  0
139  0  6 295 296  23  0  0
140  1  0 297 298  26  1  0
141  0 10 299 300  29  0  0
142  1  0 301 302  32  5  0
143  0  9 303 304  35  0  0
144  1  0 305 306  38  4  0
145  0  8 307 308  41  0  0
146  1  0 309 310  44  3  0
147  0  7 311 312  47  0  0
148  1  0 313 314  50  2  0
149  0  6 315 316  53  0  0
150  1  0 317 318  56  1  0
151  0  5 319 320  59  0  0
152  1  0 321 322  62 14  0
153  0  4 323 324  65  0  0
154  1  0 325 326  68 19  0
155  0  3 327 328  71  0  0
156  1  0 329 330  74 24  0
157  0  2 331 332  77  0  0
158  1  0 333 334  80 22  0
159  0  1 335 336  83  0  0
160  1  0 337 338  86 10  0
161  0  1 339 340  89  0  0
162  1  0 341 342  92 10  0
163  0  2 343 344  95  0  0
164  1  0 345 346  98 22  0
165  0  3 347 348 101  0  0
166  1  0 349 350 104 24  0
167  0  4 351 352 107  0  0
168  1  0 353 354 110 19  0
169  0  5 355 356 113  0  0
170  1  0 357 358 116 14  0
171  0  6 359 360   1  0  0
172  1  0 361 362   3  1  0
173  0  7 363 364   5  0  0
174  1  0 365 366   8  2  0
175  0  8 367 368  11  0  0
176  1  0 369 370  14  3  0
177  0  9 371 372  17  0  0
178  1  0 373 374  20  4  0
179  0 10 375 376  23  0  0
180  1  0 377 378  26  5  0
181  0  6 379 380  29  0  0
182  1  0 381 382  32  1  0
183  0 11 383 384  35  0  0
184  1  0 385 386  38  6  0
185  0 12 387 388  41  0  0
186  1  0 389 390  44  7  0
187  0 13 391 392  47  0  0
188  1  0 393 394  50  8  0
189  0 14 395 396  53  0  0
190  1  0 397 398  56  9  0
191  0  1 399 400  59  0  0
192  1  0 401 402  62 10  0
193  0 15 403 404  65  0  0
194  1  0 405 406  68 11  0
195  0 16 407   2  71  0  0
196  1  0 408   4  74 12  0
197  0 13 409 410  77  0  0
198  1  0 411 412  80  8  0
199  0 17 413 414  83  0  0
200  1  0 415 416  86 13  0
201  0  5 417 418  89  0  0
202  1  0 419 420  92 14  0
203  0 18 421 422  95  0  0
204  1  0 423 424  98 15  0
205  0 19 425 426 101  0  0
206  1  0 427 428 104 16  0
207  0  9 429 430 107  0  0
208  1  0 431 432 110  4  0
209  0 20 433 434 113  0  0
210  1  0 435 436 116 17  0
211  0 10 437 438   1  0  0
212  1  0 439 440   3  5  0
213  0 18 441 442   5  0  0
214  1  0 443 444   8 15  0
215  0 21 445 446  11  0  0
216  1  0 447 448  14 18  0
217  0  4 449 450  17  0  0
218  1  0 451 452  20 19  0
219  0 22 453 454  23  0  0
220  1  0 455 456  26 20  0
221  0 14 457 458  29  0  0
222  1  0 459 460  32  9  0
223  0 15 461 462  35  0  0
224  1  0 463 464  38 11  0
225  0 23 465 466  41  0  0
226  1  0 467 468  44 21  0
227  0  2 469 470  47  0  0
228  1  0 471 472  50 22  0
229  0 22 473 474  53  0  0
230  1  0 475 476  56 20  0
231  0 17 477 478  59  0  0
232  1  0 479 480  62 13  0
233  0 11 481 482  65  0  0
234  1  0 483 484  68  6  0
235  0 24 485 486  71  0  0
236  1  0 487 488  74 23  0
237  0  7 489 490  77  0  0
238  1  0 491 492  80  2  0
239  0 20 493 494  83  0  0
240  1  0 495 496  86 17  0
241  0 20 497 498  89  0  0
242  1  0 499 500  92 17  0
243  0  7 501 502  95  0  0
244  1  0 503 504  98  2  0
245  0 24 505 506 101  0  0
246  1  0 507 508 104 23  0
247  0 11 509 510 107  0  0
248  1  0 511 512 110  6  0
249  0 17 513 514 113  0  0
250  1  0 515 516 116 13  0
251  0 22 517 518   1  0  0
252  1  0 519 520   3 20  0
253  0  2 521 522   5  0  0
254  1  0 523 524   8 22  0
255  0 23 525 526  11  0  0
256  1  0 527 528  14 21  0
257  0 15 529 530  17  0  0
258  1  0 531 532  20 11  0
259  0 14 533 534  23  0  0
260  1  0 535 536  26  9  0
261  0 22 537 538  29  0  0
262  1  0 539 540  32 20  0
263  0  4 541 542  35  0  0
264  1  0 543 544  38 19  0
265  0 21 545 546  41  0  0
266  1  0 547 548  44 18  0
267  0 18 549 550  47  0  0
268  1  0 551 552  50 15  0
269  0 10 553 554  53  0  0
270  1  0 555 556  56  5  0
271  0 20 557 558  59  0  0
272  1  0 559 560  62 17  0
273  0  9 561 562  65  0  0
274  1  0 563 564  68  4  0
275  0 19 565 566  71  0  0
276  1  0 567 568  74 16  0
277  0 18 569 570  77  0  0
278  1  0 571 572  80 15  0
279  0  5 573 574  83  0  0
280  1  0 575 576  86 14  0
281  0 17 577 578  89  0  0
282  1  0 579 580  92 13  0
283  0 13 581 582  95  0  0
284  1  0 583 584  98  8  0
285  0 16 585 586 101  0  0
286  1  0 587 588 104 12  0
287  0 15 589 590 107  0  0
288  1  0 591 592 110 11  0
289  0  1 593 594 113  0  0
290  1  0 595 596 116 10  0
291  0 14 597 598   1  0  0
292  1  0 599 600   3  9  0
293  0 13 601 602   5  0  0
294  1  0 603 604   8  8  0
295  0 12 605 606  11  0  0
296  1  0 607 608  14  7  0
297  0 11 609 610  17  0  0
298  1  0 611 612  20  6  0
299  0  6 613 614  23  0  0
300  1  0 615 616  26  1  0
301  0 10 617 618  29  0  0
302  1  0 619 620  32  5  0
303  0  9 621 622  35  0  0
304  1  0 623 624  38  4  0
305  0  8 625 626  41  0  0
306  1  0 627 628  44  3  0
307  0  7 629 630  47  0  0
308  1  0 631 632  50  2  0
309  0  6 633 634  53  0  0
310  1  0 635 636  56  1  0
311  0  5 637 638  59  0  0
312  1  0 639 640  62 14  0
313  0  4 641 642  65  0  0
314  1  0 643 644  68 19  0
315  0  3 645 646  71  0  0
316  1  0 647 648  74 24  0
317  0  2 649 650  77  0  0
318  1  0 651 652  80 22  0
319  0  1 653 654  83  0  0
320  1  0 655 656  86 10  0
321  0  1 657 658  89  0  0
322  1  0 659 660  92 10  0
323  0  2 661 662  95  0  0
324  1  0 663 664  98 22  0
325  0  3 665 666 101  0  0
326  1  0 667 668 104 24  0
327  0  4 669 670 107  0  0
328  1  0 671 672 110 19  0
329  0  5 673 674 113  0  0
330  1  0 675 676 116 14  0
331  0  6 677 678   1  0  0
332  1  0 679 680   3  1  0
333  0  7 681 682   5  0  0
334  1  0 683 684   8  2  0
335  0  8 685 686  11  0  0
336  1  0 687 688  14  3  0
337  0  9 689 690  17  0  0
338  1  0 691 692  20  4  0
339  0 10 693 694  23  0  0
340  1  0 695 696  26  5  0
341  0  6 697 698  29  0  0
342  1  0 699 700  32  1  0
343  0 11 701 702  35  0  0
344  1  0 703 704  38  6  0
345  0 12 705 706  41  0  0
346  1  0 707 708  44  7  0
347  0 13 709 710  47  0  0
348  1  0 711 712  50  8  0
349  0 14 713 714  53  0  0
[RF]
1      85.1875 1 2 100 0 2.04204
2      85.1875 1 2 100 0 4.08407
3      85.1875 1 2 100 0 1.88496
4      85.1875 1 2 100 0 1.72788
5      85.1875 1 2 100 0 3.61283
6      85.1875 1 2 100 0 1.25664
7      85.1875 1 2 100 0 0.942478
8      85.1875 1 2 100 0 2.67035
9      85.1875 1 2 100 0 0.15708
10      85.1875 1 2 100 0 5.96903
11      85.1875 1 2 100 0 4.86947
12      85.1875 1 2 100 0 4.24115
13      85.1875 1 2 100 0 5.65487
14      85.1875 1 2 100 0 2.82743
15      85.1875 1 2 100 0 3.29867
16      85.1875 1 2 100 0 0.314159
17      85.1875 1 2 100 0 0.471239
18      85.1875 1 2 100 0 2.51327
19      85.1875 1 2 100 0 3.45575
20      85.1875 1 2 100 0 5.18363
21      85.1875 1 2 100 0 1.09956
22      85.1875 1 2 100 0 4.39823
23      85.1875 1 2 100 0 5.81195
24      85.1875 1 2 100 0 5.02655

# Format of arbitrary gradients:
# id amplitude shape_id delay
# ..      Hz/m     ....    us
[GRADIENTS]
1       358887 3 90
5       301232 4 90
11       251814 5 90
17       223912 6 90
23       182943 7 90
29       156901 8 90
35       122681 9 90
41      98266.6 10 90
47      73852.5 11 90
53      46530.3 12 90
59      23552.4 13 90
65      19531.3 14 90
71      22403.5 15 90
77      45381.4 16 90
83      72631.8 17 90
89      97045.9 18 90
95       121460 19 90
101       155599 20 90
107       181641 21 90
113       222517 22 90

# Format of trapezoid gradients:
# id amplitude rise flat fall delay
# ..      Hz/m   us   us   us    us
[TRAP]
 2      -928277 150    0 150 390
 3      -186012  30  180  30 960
 4       406901  70  890  70   0
 6      -920511 150    0 150 390
 7      -119822 150    0 150 390
 8      -214844  40  160  40 960
 9       403497  70  890  70   0
10      52522.6  70  890  70   0
12      -927143 150    0 150 390
13     -45877.1 150    0 150 390
14      -234375  40  160  40 960
15       406404  70  890  70   0
16      20109.8  70  890  70   0
18      -913464 150    0 150 390
19      -165169 150    0 150 390
20      -253906  40  160  40 960
21       400408  70  890  70   0
22        72400  70  890  70   0
24      -923742 150    0 150 390
25     -91642.1 150    0 150 390
26      -287829  50  140  50 960
27       404913  70  890  70   0
28      40170.4  70  890  70   0
30      -928111 150    0 150 390
31     -17529.6 150    0 150 390
32      -308388  50  140  50 960
33       406828  70  890  70   0
34      7683.93  70  890  70   0
36      -918084 150    0 150 390
37      -137183 150    0 150 390
38      -347222  60  120  60 960
39       402433  70  890  70   0
40      60132.9  70  890  70   0
42      -926111 150    0 150 390
43     -63377.1 150    0 150 390
44      -368924  60  120  60 960
45       405952  70  890  70   0
46      27780.7  70  890  70   0
48      -910183 150    0 150 390
49      -182389 150    0 150 390
50      -413603  70  100  70 960
51       398970  70  890  70   0
52      79948.4  70  890  70   0
54      -921847 150    0 150 390
55      -109070 150    0 150 390
56      -436581  70  100  70 960
57       404083  70  890  70   0
58      47809.7  70  890  70   0
60      -927615 150    0 150 390
61       -35053 150    0 150 390
62       488281  80   80  80 960
63       406611  70  890  70   0
64      15365.1  70  890  70   0
66      -915330 150    0 150 390
67      -154496 150    0 150 390
68       436581  70  100  70 960
69       401226  70  890  70   0
70      67721.7  70  890  70   0
72      -924749 150    0 150 390
73     -80854.5 150    0 150 390
74       413603  70  100  70 960
75       405355  70  890  70   0
76      35441.8  70  890  70   0
78      -928253 150    0 150 390
79     -6696.05 150    0 150 390
80       368924  60  120  60 960
81       406890  70  890  70   0
82      2935.15  70  890  70   0
84      -919623 150    0 150 390
85      -126459 150    0 150 390
86       347222  60  120  60 960
87       403108  70  890  70   0
88      55431.8  70  890  70   0
90      -926787 150    0 150 390
91     -52563.8 150    0 150 390
92       308388  50  140  50 960
93       406248  70  890  70   0
94      23040.8  70  890  70   0
96      -912249 150    0 150 390
97      -171753 150    0 150 390
98       287829  50  140  50 960
99       399875  70  890  70   0
100      75286.4  70  890  70   0
102      -923057 150    0 150 390
103     -98303.1 150    0 150 390
104       253906  40  160  40 960
105       404613  70  890  70   0
106      43090.2  70  890  70   0
108      -927961 150    0 150 390
109       -24224 150    0 150 390
110       234375  40  160  40 960
111       406762  70  890  70   0
112      10618.4  70  890  70   0
114      -917071 150    0 150 390
115      -143802 150    0 150 390
116       214844  40  160  40 960
117       401989  70  890  70   0
118      63034.3  70  890  70   0
119       336384 150    0 150 390
120      -865184 150    0 150 390
121      -147451  70  890  70   0
122       379245  70  890  70   0
123       445248 150    0 150 390
124      -814526 150    0 150 390
125      -195170  70  890  70   0
126       357039  70  890  70   0
127       378732 150    0 150 390
128      -847502 150    0 150 390
129      -166014  70  890  70   0
130       371494  70  890  70   0
131       484959 150    0 150 390
132      -791526 150    0 150 390
133      -212577  70  890  70   0
134       346957  70  890  70   0
135       420154 150    0 150 390
136      -827749 150    0 150 390
137      -184171  70  890  70   0
138       362836  70  890  70   0
139       352662 150    0 150 390
140      -858678 150    0 150 390
141      -154586  70  890  70   0
142       376393  70  890  70   0
143       460550 150    0 150 390
144      -805973 150    0 150 390
145      -201878  70  890  70   0
146       353290  70  890  70   0
147       394669 150    0 150 390
148      -840199 150    0 150 390
149      -172999  70  890  70   0
150       368293  70  890  70   0
151       499820 150    0 150 390
152      -782226 150    0 150 390
153      -219091  70  890  70   0
154       342881  70  890  70   0
155       435711 150    0 150 390
156      -819667 150    0 150 390
157      -190990  70  890  70   0
158       359293  70  890  70   0
159       368815 150    0 150 390
160      -851865 150    0 150 390
161      -161666  70  890  70   0
162       373407  70  890  70   0
163       475688 150    0 150 390
164      -797132 150    0 150 390
165      -208513  70  890  70   0
166       349415  70  890  70   0
167       410465 150    0 150 390
168      -832596 150    0 150 390
169      -179923  70  890  70   0
170       364960  70  890  70   0
171       342616 150    0 150 390
172      -862735 150    0 150 390
173      -150183  70  890  70   0
174       378171  70  890  70   0
175       451112 150    0 150 390
176      -811293 150    0 150 390
177      -197740  70  890  70   0
178       355622  70  890  70   0
179       384836 150    0 150 390
180      -844748 150    0 150 390
181      -168689  70  890  70   0
182       370287  70  890  70   0
183       490656 150    0 150 390
184      -788007 150    0 150 390
185      -215074  70  890  70   0
186       345415  70  890  70   0
187       426114 150    0 150 390
188      -824697 150    0 150 390
189      -186783  70  890  70   0
190       361498  70  890  70   0
191       358847 150    0 150 390
192      -856111 150    0 150 390
193      -157297  70  890  70   0
194       375268  70  890  70   0
195       466352 150    0 150 390
196      -802629 150    0 150 390
197      -204421  70  890  70   0
198       351825  70  890  70   0
199       684483 150    0 150 390
200       627042 150    0 150 390
201      -300036  70  890  70   0
202      -274858  70  890  70   0
203       597818 150    0 150 390
204       710149 150    0 150 390
205      -262048  70  890  70   0
206      -311287  70  890  70   0
207       652657 150    0 150 390
208       660104 150    0 150 390
209      -286086  70  890  70   0
210      -289350  70  890  70   0
211       561991 150    0 150 390
212       738827 150    0 150 390
213      -246343  70  890  70   0
214      -323857  70  890  70   0
215       619235 150    0 150 390
216       691553 150    0 150 390
217      -271436  70  890  70   0
218      -303135  70  890  70   0
219       672519 150    0 150 390
220       639856 150    0 150 390
221      -294792  70  890  70   0
222      -280475  70  890  70   0
223       584301 150    0 150 390
224       721312 150    0 150 390
225      -256123  70  890  70   0
226      -316180  70  890  70   0
227       640075 150    0 150 390
228       672311 150    0 150 390
229      -280570  70  890  70   0
230      -294701  70  890  70   0
231       547938 150    0 150 390
232       749307 150    0 150 390
233      -240183  70  890  70   0
234      -328452  70  890  70   0
235       606066 150    0 150 390
236       703123 150    0 150 390
237      -265663  70  890  70   0
238      -308207  70  890  70   0
239       660316 150    0 150 390
240       652442 150    0 150 390
241      -289443  70  890  70   0
242      -285991  70  890  70   0
243       570575 150    0 150 390
244       732217 150    0 150 390
245      -250106  70  890  70   0
246      -320960  70  890  70   0
247       627265 150    0 150 390
248       684279 150    0 150 390
249      -274955  70  890  70   0
250      -299947  70  890  70   0
251       679942 150    0 150 390
252       631963 150    0 150 390
253      -298046  70  890  70   0
254      -277015  70  890  70   0
255       592680 150    0 150 390
256       714443 150    0 150 390
257      -259795  70  890  70   0
258      -313169  70  890  70   0
259       647878 150    0 150 390
260       664795 150    0 150 390
261      -283991  70  890  70   0
262      -291406  70  890  70   0
263       556646 150    0 150 390
264       742861 150    0 150 390
265      -244001  70  890  70   0
266      -325626  70  890  70   0
267       614231 150    0 150 390
268       696002 150    0 150 390
269      -269242  70  890  70   0
270      -305086  70  890  70   0
271       667886 150    0 150 390
272       644691 150    0 150 390
273      -292761  70  890  70   0
274      -282594  70  890  70   0
275       579083 150    0 150 390
276       725508 150    0 150 390
277      -253835  70  890  70   0
278      -318019  70  890  70   0
279      -832463 150    0 150 390
280       410736 150    0 150 390
281       364902  70  890  70   0
282      -180042  70  890  70   0
283      -878516 150    0 150 390
284       299846 150    0 150 390
285       385089  70  890  70   0
286      -131434  70  890  70   0
287      -851745 150    0 150 390
288       369092 150    0 150 390
289       373354  70  890  70   0
290      -161788  70  890  70   0
291      -892262 150    0 150 390
292       256061 150    0 150 390
293       391114  70  890  70   0
294      -112242  70  890  70   0
295      -868945 150    0 150 390
296       326546 150    0 150 390
297       380894  70  890  70   0
298      -143138  70  890  70   0
299      -840071 150    0 150 390
300       394942 150    0 150 390
301       368237  70  890  70   0
302      -173119  70  890  70   0
303      -884022 150    0 150 390
304       283202 150    0 150 390
305       387502  70  890  70   0
306      -124139  70  890  70   0
307      -858563 150    0 150 390
308       352942 150    0 150 390
309       376343  70  890  70   0
310      -154709  70  890  70   0
311      -896938 150    0 150 390
312       239166 150    0 150 390
313       393164  70  890  70   0
314      -104836  70  890  70   0
315      -874957 150    0 150 390
316       310079 150    0 150 390
317       383529  70  890  70   0
318      -135920  70  890  70   0
319      -847379 150    0 150 390
320       379008 150    0 150 390
321       371440  70  890  70   0
322      -166134  70  890  70   0
323      -889212 150    0 150 390
324       266458 150    0 150 390
325       389777  70  890  70   0
326      -116799  70  890  70   0
327      -865075 150    0 150 390
328       336666 150    0 150 390
329       379197  70  890  70   0
330      -147574  70  890  70   0
331      -835404 150    0 150 390
332       404720 150    0 150 390
333       366191  70  890  70   0
334      -177405  70  890  70   0
335      -880656 150    0 150 390
336       293501 150    0 150 390
337       386027  70  890  70   0
338      -128653  70  890  70   0
339      -854385 150    0 150 390
340       362938 150    0 150 390
341       374511  70  890  70   0
342      -159090  70  890  70   0
343      -894085 150    0 150 390
344       249618 150    0 150 390
345       391914  70  890  70   0
346      -109418  70  890  70   0
347      -871278 150    0 150 390
348       320269 150    0 150 390
349       381916  70  890  70   0
350      -140387  70  890  70   0
351      -842898 150    0 150 390
352       388872 150    0 150 390
353       369476  70  890  70   0
354      -170458  70  890  70   0
355      -886042 150    0 150 390
356       276818 150    0 150 390
357       388388  70  890  70   0
358      -121340  70  890  70   0
359     -81155.3 150    0 150 390
360      -924723 150    0 150 390
361      35573.6  70  890  70   0
362       405343  70  890  70   0
363      38886.4 150    0 150 390
364      -927462 150    0 150 390
365     -17045.5  70  890  70   0
366       406544  70  890  70   0
367     -35354.6 150    0 150 390
368      -927603 150    0 150 390
369      15497.4  70  890  70   0
370       406606  70  890  70   0
371      84675.8 150    0 150 390
372      -924407 150    0 150 390
373     -37116.8  70  890  70   0
374       405205  70  890  70   0
375      10532.4 150    0 150 390
376      -928217 150    0 150 390
377     -4616.78  70  890  70   0
378       406875  70  890  70   0
379     -63678.3 150    0 150 390
380      -926090 150    0 150 390
381      27912.8  70  890  70   0
382       405943  70  890  70   0
383      56393.7 150    0 150 390
384      -926562 150    0 150 390
385     -24719.6  70  890  70   0
386       406149  70  890  70   0
387     -17831.4 150    0 150 390
388      -928106 150    0 150 390
389      7816.24  70  890  70   0
390       406826  70  890  70   0
391       102117 150    0 150 390
392      -922643 150    0 150 390
393     -44762.1  70  890  70   0
394       404431  70  890  70   0
395        28059 150    0 150 390
396      -927853 150    0 150 390
397     -12299.4  70  890  70   0
398       406715  70  890  70   0
399     -46178.7 150    0 150 390
400      -927128 150    0 150 390
401        20242  70  890  70   0
402       406397  70  890  70   0
403      73880.9 150    0 150 390
404      -925332 150    0 150 390
405       -32385  70  890  70   0
406       405610  70  890  70   0
407     -301.894 150    0 150 390
408      132.332  70  890  70   0
409     -74482.8 150    0 150 390
410      -925284 150    0 150 390
411      32648.8  70  890  70   0
412       405589  70  890  70   0
413      45575.6 150    0 150 390
414      -927157 150    0 150 390
415     -19977.6  70  890  70   0
416       406410  70  890  70   0
417     -28662.5 150    0 150 390
418      -927834 150    0 150 390
419      12563.9  70  890  70   0
420       406707  70  890  70   0
421      91341.7 150    0 150 390
422      -923772 150    0 150 390
423     -40038.7  70  890  70   0
424       404926  70  890  70   0
425      17227.8 150    0 150 390
426      -928117 150    0 150 390
427     -7551.62  70  890  70   0
428       406831  70  890  70   0
429     -56996.4 150    0 150 390
430      -926525 150    0 150 390
431      24983.8  70  890  70   0
432       406133  70  890  70   0
433      63075.9 150    0 150 390
434      -926131 150    0 150 390
435     -27648.7  70  890  70   0
436       405961  70  890  70   0
437       891280 150    0 150 390
438       259457 150    0 150 390
439      -390684  70  890  70   0
440      -113730  70  890  70   0
441       850333 150    0 150 390
442       372332 150    0 150 390
443      -372735  70  890  70   0
444      -163208  70  890  70   0
445       877368 150    0 150 390
446       303189 150    0 150 390
447      -384586  70  890  70   0
448      -132900  70  890  70   0
449       830893 150    0 150 390
450       413902 150    0 150 390
451      -364214  70  890  70   0
452      -181430  70  890  70   0
453       861312 150    0 150 390
454       346179 150    0 150 390
455      -377548  70  890  70   0
456      -151744  70  890  70   0
457       886222 150    0 150 390
458       276242 150    0 150 390
459      -388466  70  890  70   0
460      -121088  70  890  70   0
461       843150 150    0 150 390
462       388324 150    0 150 390
463      -369587  70  890  70   0
464      -170218  70  890  70   0
465       871486 150    0 150 390
466       319703 150    0 150 390
467      -382007  70  890  70   0
468      -140139  70  890  70   0
469       822928 150    0 150 390
470       429519 150    0 150 390
471      -360723  70  890  70   0
472      -188276  70  890  70   0
473       854621 150    0 150 390
474       362382 150    0 150 390
475      -374615  70  890  70   0
476      -158847  70  890  70   0
477       880847 150    0 150 390
478       292928 150    0 150 390
479      -386111  70  890  70   0
480      -128402  70  890  70   0
481       835667 150    0 150 390
482       404177 150    0 150 390
483      -366306  70  890  70   0
484      -177167  70  890  70   0
485       865294 150    0 150 390
486       336103 150    0 150 390
487      -379293  70  890  70   0
488      -147327  70  890  70   0
489       889385 150    0 150 390
490       265879 150    0 150 390
491      -389853  70  890  70   0
492      -116546  70  890  70   0
493       847625 150    0 150 390
494       378457 150    0 150 390
495      -371548  70  890  70   0
496      -165893  70  890  70   0
497       875158 150    0 150 390
498       309509 150    0 150 390
499      -383617  70  890  70   0
500      -135670  70  890  70   0
501       827886 150    0 150 390
502       419885 150    0 150 390
503      -362895  70  890  70   0
504      -184053  70  890  70   0
505       858792 150    0 150 390
506       352383 150    0 150 390
507      -376443  70  890  70   0
508      -154464  70  890  70   0
509       884206 150    0 150 390
510       282627 150    0 150 390
511      -387583  70  890  70   0
512      -123887  70  890  70   0
513       840327 150    0 150 390
514       394396 150    0 150 390
515      -368349  70  890  70   0
516      -172879  70  890  70   0
517      -564800 150    0 150 390
518       736681 150    0 150 390
519       247574  70  890  70   0
520      -322917  70  890  70   0
521      -655165 150    0 150 390
522       657614 150    0 150 390
523       287185  70  890  70   0
524      -288259  70  890  70   0
525      -600518 150    0 150 390
526       707868 150    0 150 390
527       263231  70  890  70   0
528      -310287  70  890  70   0
529      -686865 150    0 150 390
530       624431 150    0 150 390
531       301081  70  890  70   0
532      -273713  70  890  70   0
533      -634768 150    0 150 390
534       677324 150    0 150 390
535       278244  70  890  70   0
536      -296898  70  890  70   0
537      -578611 150    0 150 390
538       725884 150    0 150 390
539       253628  70  890  70   0
540      -318184  70  890  70   0
541      -667467 150    0 150 390
542       645125 150    0 150 390
543       292578  70  890  70   0
544      -282784  70  890  70   0
545      -613778 150    0 150 390
546       696401 150    0 150 390
547       269044  70  890  70   0
548      -305261  70  890  70   0
549      -698534 150    0 150 390
550       611349 150    0 150 390
551       306196  70  890  70   0
552      -267979  70  890  70   0
553      -647445 150    0 150 390
554       665216 150    0 150 390
555       283801  70  890  70   0
556      -291591  70  890  70   0
557      -592215 150    0 150 390
558       714828 150    0 150 390
559       259592  70  890  70   0
560      -313338  70  890  70   0
561      -679530 150    0 150 390
562       632405 150    0 150 390
563       297865  70  890  70   0
564      -277209  70  890  70   0
565      -626819 150    0 150 390
566       684686 150    0 150 390
567       274760  70  890  70   0
