# Pulseq sequence file
# Created by MATLAB mr toolbox

[VERSION]
major 1
minor 3
revision 1

[DEFINITIONS]
FOV 0.256 0.256 0.256 
Name 3D_radial_stackOfStars 

# Format of blocks:
#  #  D RF  GX  GY  GZ ADC EXT
[BLOCKS]
   1  0  1   2   0   1  0  0
   2  1  0   4   0   3  0  0
   3  0  2   6   7   5  0  0
   4  1  0   9  10   8  0  0
   5  0  3  12  13  11  0  0
   6  1  0  15  16  14  0  0
   7  0  4  18  19  17  0  0
   8  1  0  21  22  20  0  0
   9  0  5  24  25  23  0  0
  10  1  0  27  28  26  0  0
  11  0  6   2   0   1  0  0
  12  1  0   4   0   3  1  0
  13  0  7   6   7   5  0  0
  14  1  0   9  10   8  2  0
  15  0  8  12  13  11  0  0
  16  1  0  15  16  14  3  0
  17  0  9  18  19  17  0  0
  18  1  0  21  22  20  4  0
  19  0 10  24  25  23  0  0
  20  1  0  27  28  26  5  0
  21  0  6  30  31  29  0  0
  22  1  0  33  34  32  1  0
  23  0 11  36  37  35  0  0
  24  1  0  39  40  38  6  0
  25  0 12  42  43  41  0  0
  26  1  0  45  46  44  7  0
  27  0 13  48  49  47  0  0
  28  1  0  51  52  50  8  0
  29  0 14  54  55  53  0  0
  30  1  0  57  58  56  9  0
  31  0  1  60  61  59  0  0
  32  1  0  63  64  62 10  0
  33  0 15  66  67  65  0  0
  34  1  0  69  70  68 11  0
  35  0 16  72  73  71  0  0
  36  1  0  75  76  74 12  0
  37  0 13  78  79  77  0  0
  38  1  0  81  82  80  8  0
  39  0 17  84  85  83  0  0
  40  1  0  87  88  86 13  0
  41  0  5  90  91  89  0  0
  42  1  0  93  94  92 14  0
  43  0 18  96  97  95  0  0
  44  1  0  99 100  98 15  0
  45  0 19 102 103 101  0  0
  46  1  0 105 106 104 16  0
  47  0  9 108 109 107  0  0
  48  1  0 111 112 110  4  0
  49  0 20 114 115 113  0  0
  50  1  0 117 118 116 17  0
  51  0 10 120 121 119  0  0
  52  1  0 123 124 122  5  0
  53  0 18 126 127 125  0  0
  54  1  0 129 130 128 15  0
  55  0 21 132 133 131  0  0
  56  1  0 135 136 134 18  0
  57  0  4 138 139 137  0  0
  58  1  0 141 142 140 19  0
  59  0 22 144 145 143  0  0
  60  1  0 147 148 146 20  0
  61  0 14 150 151 149  0  0
  62  1  0 153 154 152  9  0
  63  0 15 156 157 155  0  0
  64  1  0 159 160 158 11  0
  65  0 23 162 163 161  0  0
  66  1  0 165 166 164 21  0
  67  0  2 168 169 167  0  0
  68  1  0 171 172 170 22  0
  69  0 22 174 175 173  0  0
  70  1  0 177 178 176 20  0
  71  0 17 180 181 179  0  0
  72  1  0 183 184 182 13  0
  73  0 11 186 187 185  0  0
  74  1  0 189 190 188  6  0
  75  0 24 192 193 191  0  0
  76  1  0 195 196 194 23  0
  77  0  7 198 199 197  0  0
  78  1  0 201 202 200  2  0
  79  0 20 204 205 203  0  0
  80  1  0   4 207 206 17  0
  81  0 20 209 210 208  0  0
  82  1  0 212 213 211 17  0
  83  0  7 215 216 214  0  0
  84  1  0 218 219 217  2  0
  85  0 24 221 222 220  0  0
  86  1  0 224 225 223 23  0
  87  0 11 227 228 226  0  0
  88  1  0 230 231 229  6  0
  89  0 17 233 234 232  0  0
  90  1  0 236 237 235 13  0
  91  0 22 239 240 238  0  0
  92  1  0 242 243 241 20  0
  93  0  2 245 246 244  0  0
  94  1  0 248 249 247 22  0
  95  0 23 251 252 250  0  0
  96  1  0 254 255 253 21  0
  97  0 15 257 258 256  0  0
  98  1  0 260 261 259 11  0
  99  0 14 263 264 262  0  0
 100  1  0 266 267 265  9  0
 101  0 22 269 270 268  0  0
 102  1  0 272 273 271 20  0
 103  0  4 275 276 274  0  0
 104  1  0 278 279 277 19  0
 105  0 21 281 282 280  0  0
 106  1  0 284 285 283 18  0
 107  0 18 287 288 286  0  0
 108  1  0 290 291 289 15  0
 109  0 10 293 294 292  0  0
 110  1  0 296 297 295  5  0
 111  0 20 299 300 298  0  0
 112  1  0 302 303 301 17  0
 113  0  9 305 306 304  0  0
 114  1  0 308 309 307  4  0
 115  0 19 311 312 310  0  0
 116  1  0 314 315 313 16  0
 117  0 18 317 318 316  0  0
 118  1  0 320 321 319 15  0
 119  0  5 323 324 322  0  0
 120  1  0 326 327 325 14  0
 121  0 17 329 330 328  0  0
 122  1  0 332 333 331 13  0
 123  0 13 335 336 334  0  0
 124  1  0 338 339 337  8  0
 125  0 16 341 342 340  0  0
 126  1  0 344 345 343 12  0
 127  0 15 347 348 346  0  0
 128  1  0 350 351 349 11  0
 129  0  1 353 354 352  0  0
 130  1  0 356 357 355 10  0
 131  0 14 359 360 358  0  0
 132  1  0 362 363 361  9  0
 133  0 13 365 366 364  0  0
 134  1  0 368 369 367  8  0
 135  0 12 371 372 370  0  0
 136  1  0 374 375 373  7  0
 137  0 11 377 378 376  0  0
 138  1  0 380 381 379  6  0
 139  0  6 383 384 382  0  0
 140  1  0 386 387 385  1  0
 141  0 10 389 390 388  0  0
 142  1  0 392 393 391  5  0
 143  0  9 395 396 394  0  0
 144  1  0 398 399 397  4  0
 145  0  8 401 402 400  0  0
 146  1  0 404 405 403  3  0
 147  0  7 407 408 406  0  0
 148  1  0 410 411 409  2  0
 149  0  6 413 414 412  0  0
 150  1  0 416 417 415  1  0
 151  0  5 419 420 418  0  0
 152  1  0 422 423 421 14  0
 153  0  4 425 426 424  0  0
 154  1  0 428 429 427 19  0
 155  0  3 431 432 430  0  0
 156  1  0 434 435 433 24  0
 157  0  2 437 438 436  0  0
 158  1  0 440 441 439 22  0
 159  0  1 443 444 442  0  0
 160  1  0 446 447 445 10  0
 161  0  1 449 450 448  0  0
 162  1  0 452 453 451 10  0
 163  0  2 455 456 454  0  0
 164  1  0 458 459 457 22  0
 165  0  3 461 462 460  0  0
 166  1  0 464 465 463 24  0
 167  0  4 467 468 466  0  0
 168  1  0 470 471 469 19  0
 169  0  5 473 474 472  0  0
 170  1  0 476 477 475 14  0
 171  0  6 479 480 478  0  0
 172  1  0 482 483 481  1  0
 173  0  7 485 486 484  0  0
 174  1  0 488 489 487  2  0
 175  0  8 491 492 490  0  0
 176  1  0 494 495 493  3  0
 177  0  9 497 498 496  0  0
 178  1  0 500 501 499  4  0
 179  0 10 503 504 502  0  0
 180  1  0 506 507 505  5  0
 181  0  6 509 510 508  0  0
 182  1  0 512 513 511  1  0
 183  0 11 515 516 514  0  0
 184  1  0 518 519 517  6  0
 185  0 12 521 522 520  0  0
 186  1  0 524 525 523  7  0
 187  0 13 527 528 526  0  0
 188  1  0 530 531 529  8  0
 189  0 14   2 533 532  0  0
 190  1  0   4 535 534  9  0
 191  0  1 537 538 536  0  0
 192  1  0 540 541 539 10  0
 193  0 15 543 544 542  0  0
 194  1  0 546 547 545 11  0
 195  0 16 549 550 548  0  0
 196  1  0 552 553 551 12  0
 197  0 13 555 556 554  0  0
 198  1  0 558 559 557  8  0
 199  0 17 561 562 560  0  0
 200  1  0 564 565 563 13  0
 201  0  5 567 568 566  0  0
 202  1  0 570 571 569 14  0
 203  0 18 573 574 572  0  0
 204  1  0 576 577 575 15  0
 205  0 19 579 580 578  0  0
 206  1  0 582 583 581 16  0
 207  0  9 585 586 584  0  0
 208  1  0 588 589 587  4  0
 209  0 20 591 592 590  0  0
 210  1  0 594 595 593 17  0
 211  0 10 597 598 596  0  0
 212  1  0 600 601 599  5  0
 213  0 18 603 604 602  0  0
 214  1  0 606 607 605 15  0
 215  0 21 609 610 608  0  0
 216  1  0 612 613 611 18  0
 217  0  4 615 616 614  0  0
 218  1  0 618 619 617 19  0
 219  0 22 621 622 620  0  0
 220  1  0 624 625 623 20  0
 221  0 14 627 628 626  0  0
 222  1  0 630 631 629  9  0
 223  0 15 633 634 632  0  0
 224  1  0 636 637 635 11  0
 225  0 23 639 640 638  0  0
 226  1  0 642 643 641 21  0
 227  0  2 645 646 644  0  0
 228  1  0 648 649 647 22  0
 229  0 22 651 652 650  0  0
 230  1  0 654 655 653 20  0
 231  0 17 657 658 656  0  0
 232  1  0 660 661 659 13  0
 233  0 11 663 664 662  0  0
 234  1  0 666 667 665  6  0
 235  0 24 669 670 668  0  0
 236  1  0 672 673 671 23  0
 237  0  7 675 676 674  0  0
 238  1  0 678 679 677  2  0
 239  0 20 681 682 680  0  0
 240  1  0 684 685 683 17  0
 241  0 20 687 688 686  0  0
 242  1  0 690 691 689 17  0
 243  0  7 693 694 692  0  0
 244  1  0 696 697 695  2  0
 245  0 24 699 700 698  0  0
 246  1  0 702 703 701 23  0
 247  0 11 705 706 704  0  0
 248  1  0 708 709 707  6  0
 249  0 17 711 712 710  0  0
 250  1  0 714 715 713 13  0
 251  0 22 717 718 716  0  0
 252  1  0 720 721 719 20  0
 253  0  2 723 724 722  0  0
 254  1  0 726 727 725 22  0
 255  0 23 729 730 728  0  0
 256  1  0 732 733 731 21  0
 257  0 15 735 736 734  0  0
 258  1  0 738 739 737 11  0
 259  0 14 741 742 740  0  0
 260  1  0 744 745 743  9  0
 261  0 22 747 748 746  0  0
 262  1  0 750 751 749 20  0
 263  0  4 753 754 752  0  0
 264  1  0 756 757 755 19  0
 265  0 21 759 760 758  0  0
 266  1  0 762 763 761 18  0
 267  0 18 765 766 764  0  0
 268  1  0 768 769 767 15  0
 269  0 10 771 772 770  0  0
 270  1  0 774 775 773  5  0
 271  0 20 777 778 776  0  0
 272  1  0 780 781 779 17  0
 273  0  9 783 784 782  0  0
 274  1  0 786 787 785  4  0
 275  0 19 789 790 788  0  0
 276  1  0 792 793 791 16  0
 277  0 18 795 796 794  0  0
 278  1  0 798 799 797 15  0
 279  0  5 801 802 800  0  0
 280  1  0 804 805 803 14  0
 281  0 17 807 808 806  0  0
 282  1  0 810 811 809 13  0
 283  0 13 813 814 812  0  0
 284  1  0 816 817 815  8  0
 285  0 16 819 820 818  0  0
 286  1  0 822 823 821 12  0
 287  0 15 825 826 824  0  0
 288  1  0 828 829 827 11  0
 289  0  1 831 832 830  0  0
 290  1  0 834 835 833 10  0
 291  0 14 837 838 836  0  0
 292  1  0 840 841 839  9  0
 293  0 13 843 844 842  0  0
 294  1  0 846 847 845  8  0
 295  0 12 849 850 848  0  0
 296  1  0 852 853 851  7  0
 297  0 11 855 856 854  0  0
 298  1  0 858 859 857  6  0
 299  0  6 861 862 860  0  0
 300  1  0 864 865 863  1  0
 301  0 10 867 868 866  0  0
 302  1  0 870 871 869  5  0
 303  0  9 873 874 872  0  0
 304  1  0 876 877 875  4  0
 305  0  8 879 880 878  0  0
 306  1  0 882 883 881  3  0
 307  0  7 885 886 884  0  0
 308  1  0 888 889 887  2  0
 309  0  6 891 892 890  0  0
 310  1  0 894 895 893  1  0
 311  0  5 897 898 896  0  0
 312  1  0 900 901 899 14  0
 313  0  4 903 904 902  0  0
 314  1  0 906 907 905 19  0
 315  0  3 909 910 908  0  0
 316  1  0 912 913 911 24  0
 317  0  2 915 916 914  0  0
 318  1  0 918 919 917 22  0
 319  0  1 921 922 920  0  0
 320  1  0 924 925 923 10  0
 321  0  1 927 928 926  0  0
 322  1  0 930 931 929 10  0
 323  0  2 933 934 932  0  0
 324  1  0 936 937 935 22  0
 325  0  3 939 940 938  0  0
 326  1  0 942 943 941 24  0
 327  0  4 945 946 944  0  0
 328  1  0 948 949 947 19  0
 329  0  5 951 952 950  0  0
 330  1  0 954 955 953 14  0
 331  0  6 957 958 956  0  0
 332  1  0 960 961 959  1  0
 333  0  7 963 964 962  0  0
 334  1  0 966 967 965  2  0
 335  0  8 969 970 968  0  0
 336  1  0 972 973 971  3  0
 337  0  9 975 976 974  0  0
[RF]
1      85.1875 1 2 100 0 2.04204
2      85.1875 1 2 100 0 4.08407
3      85.1875 1 2 100 0 1.88496
4      85.1875 1 2 100 0 1.72788
5      85.1875 1 2 100 0 3.61283
6      85.1875 1 2 100 0 1.25664
7      85.1875 1 2 100 0 0.942478
8      85.1875 1 2 100 0 2.67035
9      85.1875 1 2 100 0 0.15708
10      85.1875 1 2 100 0 5.96903
11      85.1875 1 2 100 0 4.86947
12      85.1875 1 2 100 0 4.24115
13      85.1875 1 2 100 0 5.65487
14      85.1875 1 2 100 0 2.82743
15      85.1875 1 2 100 0 3.29867
16      85.1875 1 2 100 0 0.314159
17      85.1875 1 2 100 0 0.471239
18      85.1875 1 2 100 0 2.51327
19      85.1875 1 2 100 0 3.45575
20      85.1875 1 2 100 0 5.18363
21      85.1875 1 2 100 0 1.09956
22      85.1875 1 2 100 0 4.39823
23      85.1875 1 2 100 0 5.81195
24      85.1875 1 2 100 0 5.02655

# Format of arbitrary gradients:
# id amplitude shape_id delay
# ..      Hz/m     ....    us
[GRADIENTS]
1  1.40001e+06 3 90
5  1.38916e+06 4 90
11  1.34106e+06 5 90
17   1.3305e+06 6 90
23  1.31994e+06 7 90
29  1.27493e+06 8 90
35  1.26465e+06 9 90
41  1.25437e+06 10 90
47  1.21219e+06 11 90
53  1.20217e+06 12 90
59  1.19216e+06 13 90
65  1.18214e+06 14 90
71  1.14282e+06 15 90
77  1.13306e+06 16 90
83  1.12329e+06 17 90
89  1.11353e+06 18 90
95  1.07684e+06 19 90
101  1.06731e+06 20 90
107  1.05778e+06 21 90
113  1.04826e+06 22 90
119    1.014e+06 23 90
125   1.0047e+06 24 90
131       995396 25 90
137       986096 26 90
143       954079 27 90
149       944995 28 90
155       935910 29 90
161       926826 30 90
167       917742 31 90
173       888006 32 90
179       879128 33 90
185       870250 34 90
191       861373 35 90
197       852495 36 90
203       824870 37 90
208       816189 38 90
214       807509 39 90
220       798828 40 90
226       790148 41 90
232       764479 42 90
238       755987 43 90
244       747495 44 90
250       739003 45 90
256       730511 46 90
262       722019 47 90
268       698346 48 90
274       690035 49 90
280       681724 50 90
286       673413 51 90
292       665101 52 90
298       656790 53 90
304       634969 54 90
310       626831 55 90
316       618693 56 90
322       610555 57 90
328       602417 58 90
334       594279 59 90
340       574179 60 90
346       566207 61 90
352       558235 62 90
358       550263 63 90
364       542291 64 90
370       534319 65 90
376       526347 66 90
382       508008 67 90
388       500195 68 90
394       492383 69 90
400       484570 70 90
406       476758 71 90
412       468945 72 90
418       461133 73 90
424       444432 74 90
430       436772 75 90
436       429113 76 90
442       421454 77 90
448       413794 78 90
454       406135 79 90
460       398476 80 90
466       390816 81 90
472       375789 82 90
478       368277 83 90
484       360765 84 90
490       353253 85 90
496       345741 86 90
502       338229 87 90
508       330717 88 90
514       317106 89 90
520       309736 90 90
526       302366 91 90
532       294996 92 90
536       287625 93 90
542       280255 94 90
548       272885 95 90
554       265514 96 90
560       253364 97 90
566       246130 98 90
572       238896 99 90
578       231662 100 90
584       224429 101 90
590       217195 102 90
596       209961 103 90
602       202727 104 90
608       195493 105 90
614       184837 106 90
620       177734 107 90
626       170632 108 90
632       163530 109 90
638       156428 110 90
644       149325 111 90
650       142223 112 90
656       135121 113 90
662       125732 114 90
668       118757 115 90
674       111782 116 90
680       104806 117 90
686      97830.6 118 90
692      90855.2 119 90
698      83879.7 120 90
704      76904.3 121 90
710      69928.9 122 90
716        61849 123 90
722      54995.9 124 90
728      48142.8 125 90
734      41289.7 126 90
740      34436.7 127 90
746      27583.6 128 90
752      20730.5 129 90
758      19531.3 130 90
764      19531.3 131 90
770      19531.3 132 90
776      19531.3 133 90
782      19531.3 134 90
788      20387.9 135 90
794        27241 136 90
800        34094 137 90
806      40947.1 138 90
812      47800.2 139 90
818      54653.2 140 90
824      61506.3 141 90
830      69580.1 142 90
836      76555.5 143 90
842        83531 144 90
848      90506.4 145 90
854      97481.9 146 90
860       104457 147 90
866       111433 148 90
872       118408 149 90
878       125384 150 90
884       134766 151 90
890       141868 152 90
896       148970 153 90
902       156072 154 90
908       163175 155 90
914       170277 156 90
920       177379 157 90
926       184482 158 90
932       191584 159 90
938       202365 160 90
944       209599 161 90
950       216833 162 90
956       224067 163 90
962       231301 164 90
968       238534 165 90
974       245768 166 90
980       253002 167 90
986       265146 168 90
992       272516 169 90
998       279886 170 90
1004       287257 171 90
1010       294627 172 90
1016       301997 173 90
1022       309368 174 90
1028       316738 175 90
1034       330341 176 90
1040       337853 177 90
1046       345365 178 90
1052       352877 179 90
1058       360389 180 90
1064       367901 181 90
1068       375413 182 90
1074       382925 183 90
1080       398093 184 90
1086       405752 185 90
1092       413411 186 90
1098       421071 187 90
1104       428730 188 90
1110       436389 189 90
1116       444049 190 90
1122       460742 191 90
1128       468555 192 90
1134       476367 193 90
1140       484180 194 90
1146       491992 195 90
1152       499805 196 90
1158       507617 197 90
1164       525949 198 90
1170       533921 199 90
1176       541893 200 90
1182       549864 201 90
1188       557836 202 90
1194       565808 203 90
1200       573780 204 90
1206       593872 205 90
1212       602010 206 90
1218       610148 207 90
1224       618286 208 90
1230       626424 209 90
1236       634562 210 90
1242       656375 211 90
1248       664686 212 90
1254       672997 213 90
1260       681308 214 90
1266       689619 215 90
1270       697931 216 90
1276       721595 217 90
1282       730087 218 90
1288       738578 219 90
1294       747070 220 90
1300       755562 221 90
1306       764054 222 90
1312       789714 223 90
1318       798394 224 90
1324       807075 225 90
1330       815755 226 90
1336       824436 227 90
1342       852051 228 90
1348       860929 229 90
1354       869806 230 90
1360       878684 231 90
1366       887562 232 90
1372       917287 233 90
1378       926372 234 90
1384       935456 235 90
1390       944540 236 90
1394       953625 237 90
1400       985631 238 90
1406       994931 239 90
1412  1.00423e+06 240 90
1418  1.01353e+06 241 90
1424  1.04778e+06 242 90
1430  1.05731e+06 243 90
1436  1.06683e+06 244 90
1442  1.07636e+06 245 90
1448  1.11304e+06 246 90
1454   1.1228e+06 247 90
1460  1.13257e+06 248 90
1466  1.14233e+06 249 90
1470  1.18164e+06 250 90
1476  1.19166e+06 251 90
1482  1.20167e+06 252 90
1488  1.21169e+06 253 90
1494  1.25385e+06 254 90
1500  1.26413e+06 255 90
1506  1.27441e+06 256 90
1512  1.31942e+06 257 90
1518  1.32997e+06 258 90

# Format of trapezoid gradients:
# id amplitude rise flat fall delay
# ..      Hz/m   us   us   us    us
[TRAP]
 2 -2.09291e+06 340    0 340 410
 3      -724638 120  570 120 1050
 4   1.6276e+06 260  790 260   0
 6  -2.0754e+06 340    0 340 410
 7      -270152 340    0 340 410
 8      -730299 120  570 120 1050
 9  1.61399e+06 260  790 260   0
10       210090 260  790 260   0
12 -2.09035e+06 340    0 340 410
13      -103435 340    0 340 410
14      -735960 120  570 120 1050
15  1.62562e+06 260  790 260   0
16      80439.2 260  790 260   0
18 -2.05951e+06 340    0 340 410
19      -372391 340    0 340 410
20      -741621 120  570 120 1050
21  1.60163e+06 260  790 260   0
22       289600 260  790 260   0
24 -2.08268e+06 340    0 340 410
25      -206618 340    0 340 410
26      -747283 120  570 120 1050
27  1.61965e+06 260  790 260   0
28       160682 260  790 260   0
30 -2.09253e+06 340    0 340 410
31     -39522.5 340    0 340 410
32      -752944 120  570 120 1050
33  1.62731e+06 260  790 260   0
34      30735.7 260  790 260   0
36 -2.06993e+06 340    0 340 410
37      -309295 340    0 340 410
38      -758605 120  570 120 1050
39  1.60973e+06 260  790 260   0
40       240532 260  790 260   0
42 -2.08802e+06 340    0 340 410
43      -142891 340    0 340 410
44      -764266 120  570 120 1050
45  1.62381e+06 260  790 260   0
46       111123 260  790 260   0
48 -2.05211e+06 340    0 340 410
49      -411217 340    0 340 410
50      -781250 130  550 130 1050
51  1.59588e+06 260  790 260   0
52       319794 260  790 260   0
54 -2.07841e+06 340    0 340 410
55      -245910 340    0 340 410
56      -786994 130  550 130 1050
57  1.61633e+06 260  790 260   0
58       191239 260  790 260   0
60 -2.09141e+06 340    0 340 410
61     -79030.9 340    0 340 410
62      -792739 130  550 130 1050
63  1.62644e+06 260  790 260   0
64      61460.5 260  790 260   0
66 -2.06372e+06 340    0 340 410
67      -348329 340    0 340 410
68      -798483 130  550 130 1050
69   1.6049e+06 260  790 260   0
70       270887 260  790 260   0
72 -2.08495e+06 340    0 340 410
73      -182296 340    0 340 410
74      -804228 130  550 130 1050
75  1.62142e+06 260  790 260   0
76       141767 260  790 260   0
78 -2.09285e+06 340    0 340 410
79       -15097 340    0 340 410
80      -809972 130  550 130 1050
81  1.62756e+06 260  790 260   0
82      11740.6 260  790 260   0
84  -2.0734e+06 340    0 340 410
85      -285115 340    0 340 410
86      -815717 130  550 130 1050
87  1.61243e+06 260  790 260   0
88       221727 260  790 260   0
90 -2.08955e+06 340    0 340 410
91      -118511 340    0 340 410
92      -821461 130  550 130 1050
93  1.62499e+06 260  790 260   0
94      92163.3 260  790 260   0
96 -2.05677e+06 340    0 340 410
97      -387238 340    0 340 410
98      -827206 130  550 130 1050
99   1.5995e+06 260  790 260   0
100       301146 260  790 260   0
102 -2.08114e+06 340    0 340 410
103      -221636 340    0 340 410
104      -845382 140  530 140 1050
105  1.61845e+06 260  790 260   0
106       172361 260  790 260   0
108 -2.09219e+06 340    0 340 410
109     -54615.8 340    0 340 410
110      -851213 140  530 140 1050
111  1.62705e+06 260  790 260   0
112      42473.4 260  790 260   0
114 -2.06764e+06 340    0 340 410
115      -324219 340    0 340 410
116      -857043 140  530 140 1050
117  1.60796e+06 260  790 260   0
118       252137 260  790 260   0
120 -2.08694e+06 340    0 340 410
121      -157949 340    0 340 410
122      -862873 140  530 140 1050
123  1.62296e+06 260  790 260   0
124       122833 260  790 260   0
126 -2.04909e+06 340    0 340 410
127      -426009 340    0 340 410
128      -868703 140  530 140 1050
129  1.59353e+06 260  790 260   0
130       331297 260  790 260   0
132 -2.07658e+06 340    0 340 410
133      -260896 340    0 340 410
134      -874534 140  530 140 1050
135  1.61491e+06 260  790 260   0
136       202893 260  790 260   0
138 -2.09079e+06 340    0 340 410
139     -94115.1 340    0 340 410
140      -880364 140  530 140 1050
141  1.62596e+06 260  790 260   0
142      73191.1 260  790 260   0
144 -2.06115e+06 340    0 340 410
145      -363206 340    0 340 410
146      -886194 140  530 140 1050
147  1.60291e+06 260  790 260   0
148       282457 260  790 260   0
150 -2.08358e+06 340    0 340 410
151      -197331 340    0 340 410
152      -892024 140  530 140 1050
153  1.62035e+06 260  790 260   0
154       153459 260  790 260   0
156 -2.09269e+06 340    0 340 410
157     -30193.3 340    0 340 410
158      -911458 150  510 150 1050
159  1.62743e+06 260  790 260   0
160      23480.6 260  790 260   0
162 -2.07129e+06 340    0 340 410
163      -300064 340    0 340 410
164      -917377 150  510 150 1050
165  1.61079e+06 260  790 260   0
166       233353 260  790 260   0
168 -2.08864e+06 340    0 340 410
169      -133581 340    0 340 410
170      -923295 150  510 150 1050
171  1.62429e+06 260  790 260   0
172       103883 260  790 260   0
174 -2.05392e+06 340    0 340 410
175      -402064 340    0 340 410
176      -929214 150  510 150 1050
177  1.59729e+06 260  790 260   0
178       312676 260  790 260   0
180 -2.07949e+06 340    0 340 410
181      -236642 340    0 340 410
182      -935133 150  510 150 1050
183  1.61717e+06 260  790 260   0
184       184031 260  790 260   0
186 -2.09175e+06 340    0 340 410
187     -69706.3 340    0 340 410
188      -941051 150  510 150 1050
189   1.6267e+06 260  790 260   0
190      54208.9 260  790 260   0
192 -2.06525e+06 340    0 340 410
193      -339125 340    0 340 410
194      -946970 150  510 150 1050
195   1.6061e+06 260  790 260   0
196       263729 260  790 260   0
198 -2.08575e+06 340    0 340 410
199      -172999 340    0 340 410
200      -952888 150  510 150 1050
201  1.62203e+06 260  790 260   0
202       134537 260  790 260   0
204  -2.0929e+06 340    0 340 410
205     -5766.59 340    0 340 410
206      -973558 160  490 160 1050
207      4484.54 260  790 260   0
209 -2.07465e+06 340    0 340 410
210      -275869 340    0 340 410
211      -979567 160  490 160 1050
212   1.6134e+06 260  790 260   0
213       214537 260  790 260   0
215 -2.09006e+06 340    0 340 410
216      -109194 340    0 340 410
217      -985577 160  490 160 1050
218  1.62539e+06 260  790 260   0
219      84917.9 260  790 260   0
221 -2.05848e+06 340    0 340 410
222      -378065 340    0 340 410
223      -991587 160  490 160 1050
224  1.60083e+06 260  790 260   0
225       294012 260  790 260   0
227 -2.08211e+06 340    0 340 410
228      -212355 340    0 340 410
229      -997596 160  490 160 1050
230   1.6192e+06 260  790 260   0
231       165144 260  790 260   0
233 -2.09242e+06 340    0 340 410
234     -45287.9 340    0 340 410
235 -1.00361e+06 160  490 160 1050
236  1.62722e+06 260  790 260   0
237      35219.3 260  790 260   0
239 -2.06907e+06 340    0 340 410
240      -314997 340    0 340 410
241 -1.00962e+06 160  490 160 1050
242  1.60906e+06 260  790 260   0
243       244966 260  790 260   0
245 -2.08762e+06 340    0 340 410
246      -148644 340    0 340 410
247 -1.01562e+06 160  490 160 1050
248  1.62349e+06 260  790 260   0
249       115597 260  790 260   0
251 -2.05097e+06 340    0 340 410
252      -416870 340    0 340 410
253 -1.02163e+06 160  490 160 1050
254  1.59499e+06 260  790 260   0
255       324189 260  790 260   0
257 -2.07772e+06 340    0 340 410
258      -251636 340    0 340 410
259  -1.0437e+06 170  470 170 1050
260   1.6158e+06 260  790 260   0
261       195691 260  790 260   0
263 -2.09119e+06 340    0 340 410
264     -84793.1 340    0 340 410
265  -1.0498e+06 170  470 170 1050
266  1.62627e+06 260  790 260   0
267      65941.6 260  790 260   0
269 -2.06275e+06 340    0 340 410
270      -354014 340    0 340 410
271 -1.05591e+06 170  470 170 1050
272  1.60415e+06 260  790 260   0
273       275308 260  790 260   0
275 -2.08444e+06 340    0 340 410
276      -188040 340    0 340 410
277 -1.06201e+06 170  470 170 1050
278  1.62102e+06 260  790 260   0
279       146234 260  790 260   0
281  -2.0928e+06 340    0 340 410
282     -20863.4 340    0 340 410
283 -1.06812e+06 170  470 170 1050
284  1.62752e+06 260  790 260   0
285        16225 260  790 260   0
287  -2.0726e+06 340    0 340 410
288      -290827 340    0 340 410
289 -1.07422e+06 170  470 170 1050
290  1.61181e+06 260  790 260   0
291       226169 260  790 260   0
293 -2.08921e+06 340    0 340 410
294      -124268 340    0 340 410
295 -1.08032e+06 170  470 170 1050
296  1.62473e+06 260  790 260   0
297      96640.3 260  790 260   0
299  -2.0557e+06 340    0 340 410
300      -392903 340    0 340 410
301 -1.10367e+06 180  450 180 1050
302  1.59867e+06 260  790 260   0
303       305552 260  790 260   0
305 -2.08052e+06 340    0 340 410
306      -227369 340    0 340 410
307 -1.10987e+06 180  450 180 1050
308  1.61797e+06 260  790 260   0
309       176819 260  790 260   0
311 -2.09204e+06 340    0 340 410
312     -60380.2 340    0 340 410
313 -1.11607e+06 180  450 180 1050
314  1.62693e+06 260  790 260   0
315      46956.3 260  790 260   0
317 -2.06674e+06 340    0 340 410
318      -329914 340    0 340 410
319 -1.12227e+06 180  450 180 1050
320  1.60726e+06 260  790 260   0
321       256566 260  790 260   0
323  -2.0865e+06 340    0 340 410
324      -163699 340    0 340 410
325 -1.12847e+06 180  450 180 1050
326  1.62262e+06 260  790 260   0
327       127305 260  790 260   0
329 -2.04791e+06 340    0 340 410
330      -431653 340    0 340 410
331 -1.13467e+06 180  450 180 1050
332  1.59261e+06 260  790 260   0
333       335686 260  790 260   0
335 -2.07586e+06 340    0 340 410
336      -266617 340    0 340 410
337 -1.14087e+06 180  450 180 1050
338  1.61434e+06 260  790 260   0
339       207342 260  790 260   0
341 -2.09052e+06 340    0 340 410
342     -99875.5 340    0 340 410
343 -1.14707e+06 180  450 180 1050
344  1.62575e+06 260  790 260   0
345      77670.8 260  790 260   0
347 -2.06014e+06 340    0 340 410
348      -368884 340    0 340 410
349 -1.17187e+06 190  430 190 1050
350  1.60212e+06 260  790 260   0
351       286872 260  790 260   0
353 -2.08303e+06 340    0 340 410
354      -203071 340    0 340 410
355 -1.17818e+06 190  430 190 1050
356  1.61992e+06 260  790 260   0
357       157923 260  790 260   0
359  -2.0926e+06 340    0 340 410
360     -35959.1 340    0 340 410
361 -1.18448e+06 190  430 190 1050
362  1.62736e+06 260  790 260   0
363      27964.6 260  790 260   0
365 -2.07045e+06 340    0 340 410
366      -305770 340    0 340 410
367 -1.19078e+06 190  430 190 1050
368  1.61014e+06 260  790 260   0
369       237790 260  790 260   0
371 -2.08826e+06 340    0 340 410
372      -139335 340    0 340 410
373 -1.19708e+06 190  430 190 1050
374  1.62399e+06 260  790 260   0
375       108358 260  790 260   0
377 -2.05281e+06 340    0 340 410
378      -407722 340    0 340 410
379 -1.20338e+06 190  430 190 1050
380  1.59642e+06 260  790 260   0
381       317076 260  790 260   0
383 -2.07883e+06 340    0 340 410
384      -242371 340    0 340 410
385 -1.20968e+06 190  430 190 1050
386  1.61665e+06 260  790 260   0
387       188486 260  790 260   0
389 -2.09155e+06 340    0 340 410
390     -75469.4 340    0 340 410
391 -1.23591e+06 200  410 200 1050
392  1.62655e+06 260  790 260   0
393      58690.8 260  790 260   0
395 -2.06431e+06 340    0 340 410
396      -344814 340    0 340 410
397 -1.24232e+06 200  410 200 1050
398  1.60536e+06 260  790 260   0
399       268154 260  790 260   0
401 -2.08526e+06 340    0 340 410
402      -178745 340    0 340 410
403 -1.24872e+06 200  410 200 1050
404  1.62166e+06 260  790 260   0
405       139006 260  790 260   0
407 -2.09288e+06 340    0 340 410
408     -11533.1 340    0 340 410
409 -1.25512e+06 200  410 200 1050
410  1.62758e+06 260  790 260   0
411      8969.05 260  790 260   0
413 -2.07388e+06 340    0 340 410
414      -281584 340    0 340 410
415 -1.26153e+06 200  410 200 1050
416  1.61281e+06 260  790 260   0
417       218981 260  790 260   0
419 -2.08975e+06 340    0 340 410
420      -114953 340    0 340 410
421 -1.26793e+06 200  410 200 1050
422  1.62515e+06 260  790 260   0
423        89396 260  790 260   0
425 -2.05743e+06 340    0 340 410
426      -383735 340    0 340 410
427 -1.27433e+06 200  410 200 1050
428  1.60001e+06 260  790 260   0
429       298421 260  790 260   0
431 -2.08151e+06 340    0 340 410
432      -218091 340    0 340 410
433 -1.30208e+06 210  390 210 1050
434  1.61874e+06 260  790 260   0
435       169605 260  790 260   0
437 -2.09228e+06 340    0 340 410
438       -51053 340    0 340 410
439 -1.30859e+06 210  390 210 1050
440  1.62712e+06 260  790 260   0
441      39702.7 260  790 260   0
443 -2.06819e+06 340    0 340 410
444      -320697 340    0 340 410
445  -1.3151e+06 210  390 210 1050
446  1.60838e+06 260  790 260   0
447       249399 260  790 260   0
449  -2.0872e+06 340    0 340 410
450      -154395 340    0 340 410
451 -1.32161e+06 210  390 210 1050
452  1.62317e+06 260  790 260   0
453       120069 260  790 260   0
455 -2.04981e+06 340    0 340 410
