# Pulseq sequence file
# Created by MATLAB mr toolbox

[VERSION]
major 1
minor 3
revision 1

[DEFINITIONS]
FOV 0.256 0.256 0.256 
Name NaN 

# Format of blocks:
#  #  D RF  GX  GY  GZ ADC EXT
[BLOCKS]
   1  0  1   2   0   1  0  0
   2  1  0   4   0   3  0  0
   3  0  2   6   7   5  0  0
   4  1  0   9  10   8  0  0
   5  0  3  12  13  11  0  0
   6  1  0   4  15  14  0  0
   7  0  4  17  18  16  0  0
   8  1  0  20  21  19  0  0
   9  0  5  23  24  22  0  0
  10  1  0  26  27  25  0  0
  11  0  6   2   0   1  0  0
  12  1  0   4   0   3  1  0
  13  0  7   6   7   5  0  0
  14  1  0   9  10   8  2  0
  15  0  8  12  13  11  0  0
  16  1  0   4  15  14  3  0
  17  0  9  17  18  16  0  0
  18  1  0  20  21  19  4  0
  19  0 10  23  24  22  0  0
  20  1  0  26  27  25  5  0
  21  0  6   2  29  28  0  0
  22  1  0   4  31  30  1  0
  23  0 11  33  34  32  0  0
  24  1  0  36  37  35  6  0
  25  0 12  39  40  38  0  0
  26  1  0  42  43  41  7  0
  27  0 13  45  46  44  0  0
  28  1  0  48  49  47  8  0
  29  0 14  51  52  50  0  0
  30  1  0  54  55  53  9  0
  31  0  1  12  57  56  0  0
  32  1  0   4  59  58 10  0
  33  0 15  61  62  60  0  0
  34  1  0  64  65  63 11  0
  35  0 16  67  68  66  0  0
  36  1  0  26  70  69 12  0
  37  0 13   2  72  71  0  0
  38  1  0   4  74  73  8  0
  39  0 17  76  77  75  0  0
  40  1  0  79  80  78 13  0
  41  0  5  12  82  81  0  0
  42  1  0   4  84  83 14  0
  43  0 18  17  86  85  0  0
  44  1  0  20  88  87 15  0
  45  0 19  23  90  89  0  0
  46  1  0  54  92  91 16  0
  47  0  9   2  94  93  0  0
  48  1  0   4  96  95  4  0
  49  0 20  98  99  97  0  0
  50  1  0  36 101 100 17  0
  51  0 10  39 103 102  0  0
  52  1  0  42 105 104  5  0
  53  0 18 107 108 106  0  0
  54  1  0  48 110 109 15  0
  55  0 21   6 112 111  0  0
  56  1  0   9 114 113 18  0
  57  0  4  12 116 115  0  0
  58  1  0   4 118 117 19  0
  59  0 22 120 121 119  0  0
  60  1  0 123 124 122 20  0
  61  0 14  67 126 125  0  0
  62  1  0  26 128 127  9  0
  63  0 15   2 130 129  0  0
  64  1  0   4 132 131 11  0
  65  0 23  76 134 133  0  0
  66  1  0  79 136 135 21  0
  67  0  2  12 138 137  0  0
  68  1  0  42 140 139 22  0
  69  0 22 142 143 141  0  0
  70  1  0 145 146 144 20  0
  71  0 17  51 148 147  0  0
  72  1  0  54 150 149 13  0
  73  0 11   2 152 151  0  0
  74  1  0   4 154 153  6  0
  75  0 24  61 156 155  0  0
  76  1  0  64 158 157 23  0
  77  0  7  39 160 159  0  0
  78  1  0  42 162 161  2  0
  79  0 20   2 164 163  0  0
  80  1  0   4 166 165 17  0
  81  0 20   6 168 167  0  0
  82  1  0   9 170 169 17  0
  83  0  7  12 172 171  0  0
  84  1  0   4 174 173  2  0
  85  0 24  17 176 175  0  0
  86  1  0  20 178 177 23  0
  87  0 11  23 180 179  0  0
  88  1  0  26 182 181  6  0
  89  0 17   2 184 183  0  0
  90  1  0   4 186 185 13  0
  91  0 22  33 188 187  0  0
  92  1  0  36 190 189 20  0
  93  0  2  39 192 191  0  0
  94  1  0  42 194 193 22  0
  95  0 23  45 196 195  0  0
  96  1  0  48 198 197 21  0
  97  0 15  51 200 199  0  0
  98  1  0   9 202 201 11  0
  99  0 14  12 204 203  0  0
 100  1  0   4 206 205  9  0
 101  0 22  61 208 207  0  0
 102  1  0 123 210 209 20  0
 103  0  4  67 212 211  0  0
 104  1  0  26 214 213 19  0
 105  0 21   2 216 215  0  0
 106  1  0   4 218 217 18  0
 107  0 18  76 220 219  0  0
 108  1  0  79 222 221 15  0
 109  0 10  12 224 223  0  0
 110  1  0  42 226 225  5  0
 111  0 20 142 228 227  0  0
 112  1  0 145 230 229 17  0
 113  0  9  23 232 231  0  0
 114  1  0  54 234 233  4  0
 115  0 19   2 236 235  0  0
 116  1  0   4 238 237 16  0
 117  0 18  98 240 239  0  0
 118  1  0  64 242 241 15  0
 119  0  5  39 244 243  0  0
 120  1  0  42 246 245 14  0
 121  0 17 248 249 247  0  0
 122  1  0 251 252 250 13  0
 123  0 13   6 254 253  0  0
 124  1  0   9 256 255  8  0
 125  0 16  12 258 257  0  0
 126  1  0   4 260 259 12  0
 127  0 15 120 262 261  0  0
 128  1  0 123 264 263 11  0
 129  0  1  67 266 265  0  0
 130  1  0  26 268 267 10  0
 131  0 14   2 270 269  0  0
 132  1  0   4 272 271  9  0
 133  0 13  33 274 273  0  0
 134  1  0  36 276 275  8  0
 135  0 12  39 278 277  0  0
 136  1  0  42 280 279  7  0
 137  0 11  45 282 281  0  0
 138  1  0 145 284 283  6  0
 139  0  6  51 286 285  0  0
 140  1  0  54 288 287  1  0
 141  0 10   2 290 289  0  0
 142  1  0   4 292 291  5  0
 143  0  9  61 294 293  0  0
 144  1  0  64 296 295  4  0
 145  0  8  67 298 297  0  0
 146  1  0  26 300 299  3  0
 147  0  7   2 302 301  0  0
 148  1  0   4 304 303  2  0
 149  0  6  76 306 305  0  0
 150  1  0  79 308 307  1  0
 151  0  5  12 310 309  0  0
 152  1  0   4 312 311 14  0
 153  0  4  17 314 313  0  0
 154  1  0  20 316 315 19  0
 155  0  3  23 318 317  0  0
 156  1  0  54 320 319 24  0
 157  0  2   2 322 321  0  0
 158  1  0   4 324 323 22  0
 159  0  1  98 326 325  0  0
 160  1  0  36 328 327 10  0
 161  0  1  39 330 329  0  0
 162  1  0  42 332 331 10  0
 163  0  2 107 334 333  0  0
 164  1  0  48 336 335 22  0
 165  0  3  51 338 337  0  0
 166  1  0   9 340 339 24  0
 167  0  4  12 342 341  0  0
 168  1  0   4 344 343 19  0
 169  0  5 120 346 345  0  0
 170  1  0 123 348 347 14  0
 171  0  6  67 350 349  0  0
 172  1  0  26 352 351  1  0
 173  0  7   2 354 353  0  0
 174  1  0   4 356 355  2  0
 175  0  8  76 358 357  0  0
 176  1  0  79 360 359  3  0
 177  0  9  12 362 361  0  0
 178  1  0  42 364 363  4  0
 179  0 10 142 366 365  0  0
 180  1  0 145 368 367  5  0
 181  0  6  51 370 369  0  0
 182  1  0  54 372 371  1  0
 183  0 11   2 374 373  0  0
 184  1  0   4 376 375  6  0
 185  0 12  98 378 377  0  0
 186  1  0  64 380 379  7  0
 187  0 13  39 382 381  0  0
 188  1  0  42 384 383  8  0
 189  0 14   2 386 385  0  0
 190  1  0   4 388 387  9  0
 191  0  1   6 390 389  0  0
 192  1  0   9 392 391 10  0
 193  0 15  12 394 393  0  0
 194  1  0   4 396 395 11  0
 195  0 16  17 398 397  0  0
 196  1  0  20 400 399 12  0
 197  0 13  23 402 401  0  0
 198  1  0  26 404 403  8  0
 199  0 17   2 406 405  0  0
 200  1  0   4 408 407 13  0
 201  0  5  33 410 409  0  0
 202  1  0  36 412 411 14  0
 203  0 18  39 414 413  0  0
 204  1  0  42 416 415 15  0
 205  0 19  45 418 417  0  0
 206  1  0  48 420 419 16  0
 207  0  9  51 422 421  0  0
 208  1  0   9 424 423  4  0
 209  0 20  12 426 425  0  0
 210  1  0   4 428 427 17  0
 211  0 10  61 430 429  0  0
 212  1  0  64 432 431  5  0
 213  0 18  67 434 433  0  0
 214  1  0  26 436 435 15  0
 215  0 21   2 438 437  0  0
 216  1  0   4 440 439 18  0
 217  0  4  76 442 441  0  0
 218  1  0  79 444 443 19  0
 219  0 22  12 446 445  0  0
 220  1  0  42 448 447 20  0
 221  0 14 142 450 449  0  0
 222  1  0  20 452 451  9  0
 223  0 15  23 454 453  0  0
 224  1  0  54 456 455 11  0
 225  0 23   2 458 457  0  0
 226  1  0   4 460 459 21  0
 227  0  2  98 462 461  0  0
 228  1  0  36 464 463 22  0
 229  0 22  39 466 465  0  0
 230  1  0  42 468 467 20  0
 231  0 17 107 470 469  0  0
 232  1  0  48 472 471 13  0
 233  0 11   6 474 473  0  0
 234  1  0   9 476 475  6  0
 235  0 24  12 478 477  0  0
 236  1  0   4 480 479 23  0
 237  0  7 120 482 481  0  0
 238  1  0 123 484 483  2  0
 239  0 20  67 486 485  0  0
 240  1  0  26 488 487 17  0
 241  0 20   2 490 489  0  0
 242  1  0   4 492 491 17  0
 243  0  7  33 494 493  0  0
 244  1  0  79 496 495  2  0
 245  0 24  39 498 497  0  0
 246  1  0  42 500 499 23  0
 247  0 11  45 502 501  0  0
 248  1  0 145 504 503  6  0
 249  0 17  51 506 505  0  0
 250  1  0  54 508 507 13  0
 251  0 22   2 510 509  0  0
 252  1  0   4 512 511 20  0
 253  0  2  61 514 513  0  0
 254  1  0  64 516 515 22  0
 255  0 23  67 518 517  0  0
 256  1  0  26 520 519 21  0
 257  0 15   2 522 521  0  0
 258  1  0   4 524 523 11  0
 259  0 14   6 526 525  0  0
 260  1  0  79 528 527  9  0
 261  0 22  12 530 529  0  0
 262  1  0   4 532 531 20  0
 263  0  4  17 534 533  0  0
 264  1  0  20 536 535 19  0
 265  0 21  23 538 537  0  0
 266  1  0  54 540 539 18  0
 267  0 18   2 542 541  0  0
 268  1  0   4 544 543 15  0
 269  0 10  33 546 545  0  0
 270  1  0  36 548 547  5  0
 271  0 20  39 550 549  0  0
 272  1  0  42 552 551 17  0
 273  0  9 107 554 553  0  0
 274  1  0  48 556 555  4  0
 275  0 19  51 558 557  0  0
 276  1  0   9 560 559 16  0
 277  0 18  12 562 561  0  0
 278  1  0   4 564 563 15  0
 279  0  5 120 566 565  0  0
 280  1  0 123 568 567 14  0
 281  0 17  67 570 569  0  0
 282  1  0  26 572 571 13  0
 283  0 13   2 574 573  0  0
 284  1  0   4 576 575  8  0
 285  0 16  76 578 577  0  0
 286  1  0  79 580 579 12  0
 287  0 15  12 582 581  0  0
 288  1  0  42 584 583 11  0
 289  0  1 142 586 585  0  0
 290  1  0 145 588 587 10  0
 291  0 14  23 590 589  0  0
 292  1  0  54 592 591  9  0
 293  0 13   2 594 593  0  0
 294  1  0   4 596 595  8  0
 295  0 12  98 598 597  0  0
 296  1  0  64 600 599  7  0
 297  0 11  39 602 601  0  0
 298  1  0  42 604 603  6  0
 299  0  6 248 606 605  0  0
 300  1  0 251 608 607  1  0
 301  0 10   6 610 609  0  0
 302  1  0   9 612 611  5  0
 303  0  9  12 614 613  0  0
 304  1  0   4 616 615  4  0
 305  0  8 120 618 617  0  0
 306  1  0 123 620 619  3  0
 307  0  7  67 622 621  0  0
 308  1  0  26 624 623  2  0
 309  0  6   2 626 625  0  0
 310  1  0   4 628 627  1  0
 311  0  5  33 630 629  0  0
 312  1  0  36 632 631 14  0
 313  0  4  39 634 633  0  0
 314  1  0  42 636 635 19  0
 315  0  3  45 638 637  0  0
 316  1  0 145 640 639 24  0
 317  0  2  51 642 641  0  0
 318  1  0  54 644 643 22  0
 319  0  1  12 646 645  0  0
 320  1  0   4 648 647 10  0
 321  0  1  61 650 649  0  0
 322  1  0  64 652 651 10  0
 323  0  2  67 654 653  0  0
 324  1  0  26 656 655 22  0
 325  0  3   2 658 657  0  0
 326  1  0   4 660 659 24  0
 327  0  4  76 662 661  0  0
 328  1  0  79 664 663 19  0
 329  0  5  12 666 665  0  0
 330  1  0   4 668 667 14  0
 331  0  6  17 670 669  0  0
 332  1  0  20 672 671  1  0
 333  0  7  23 674 673  0  0
 334  1  0  54 676 675  2  0
 335  0  8   2 678 677  0  0
 336  1  0   4 680 679  3  0
 337  0  9  98 682 681  0  0
[RF]
1      94.1434 1 2 100 0 2.04204
2      94.1434 1 2 100 0 4.08407
3      94.1434 1 2 100 0 1.88496
4      94.1434 1 2 100 0 1.72788
5      94.1434 1 2 100 0 3.61283
6      94.1434 1 2 100 0 1.25664
7      94.1434 1 2 100 0 0.942478
8      94.1434 1 2 100 0 2.67035
9      94.1434 1 2 100 0 0.15708
10      94.1434 1 2 100 0 5.96903
11      94.1434 1 2 100 0 4.86947
12      94.1434 1 2 100 0 4.24115
13      94.1434 1 2 100 0 5.65487
14      94.1434 1 2 100 0 2.82743
15      94.1434 1 2 100 0 3.29867
16      94.1434 1 2 100 0 0.314159
17      94.1434 1 2 100 0 0.471239
18      94.1434 1 2 100 0 2.51327
19      94.1434 1 2 100 0 3.45575
20      94.1434 1 2 100 0 5.18363
21      94.1434 1 2 100 0 1.09956
22      94.1434 1 2 100 0 4.39823
23      94.1434 1 2 100 0 5.81195
24      94.1434 1 2 100 0 5.02655

# Format of arbitrary gradients:
# id amplitude shape_id delay
# ..      Hz/m     ....    us
[GRADIENTS]
1  1.71499e+06 3 90
5  1.64919e+06 4 90
11  1.58738e+06 5 90
16   1.5292e+06 6 90
22  1.51771e+06 7 90
28  1.46319e+06 8 90
32  1.45203e+06 9 90
38  1.40084e+06 10 90
44  1.38999e+06 11 90
50  1.37914e+06 12 90
56  1.33131e+06 13 90
60  1.32075e+06 14 90
66  1.27572e+06 15 90
71  1.26544e+06 16 90
75  1.25516e+06 17 90
81  1.21296e+06 18 90
85  1.20294e+06 19 90
89  1.19293e+06 20 90
93  1.18291e+06 21 90
97  1.14357e+06 22 90
102  1.13381e+06 23 90
106  1.12404e+06 24 90
111  1.11427e+06 25 90
115  1.07757e+06 26 90
119  1.06804e+06 27 90
125  1.05851e+06 28 90
129  1.04899e+06 29 90
133  1.01471e+06 30 90
137  1.00541e+06 31 90
141       996110 32 90
147       986809 33 90
151       954776 34 90
155       945691 35 90
159       936607 36 90
163       927523 37 90
167       918438 38 90
171       888687 39 90
175       879809 40 90
179       870931 41 90
183       862053 42 90
187       853176 43 90
191       825536 44 90
195       816855 45 90
199       808174 46 90
203       799494 47 90
207       790813 48 90
211       765130 49 90
215       756638 50 90
219       748146 51 90
223       739654 52 90
227       731162 53 90
231       722671 54 90
235       698984 55 90
239       690672 56 90
243       682361 57 90
247       674050 58 90
253       665739 59 90
257       657428 60 90
261       635593 61 90
265       627455 62 90
269       619317 63 90
273       611179 64 90
277       603041 65 90
281       594903 66 90
285       586765 67 90
289       566818 68 90
293       558846 69 90
297       550874 70 90
301       542903 71 90
305       534931 72 90
309       526959 73 90
313       508607 74 90
317       500794 75 90
321       492982 76 90
325       485169 77 90
329       477357 78 90
333       469544 79 90
337       461732 80 90
341       445019 81 90
345       437360 82 90
349       429700 83 90
353       422041 84 90
357       414382 85 90
361       406723 86 90
365       399063 87 90
369       391404 88 90
373       376365 89 90
377       368853 90 90
381       361341 91 90
385       353829 92 90
389       346317 93 90
393       338805 94 90
397       331293 95 90
401       317672 96 90
405       310301 97 90
409       302931 98 90
413       295561 99 90
417       288191 100 90
421       280820 101 90
425       273450 102 90
429       266080 103 90
433       253919 104 90
437       246685 105 90
441       239451 106 90
445       232217 107 90
449       224983 108 90
453       217750 109 90
457       210516 110 90
461       203282 111 90
465       196048 112 90
469       185381 113 90
473       178279 114 90
477       171177 115 90
481       164075 116 90
485       156972 117 90
489       149870 118 90
493       142768 119 90
497       135665 120 90
501       126267 121 90
505       119292 122 90
509       112317 123 90
513       105341 124 90
517      98365.6 125 90
521      91390.2 126 90
525      84414.7 127 90
529      77439.3 128 90
533      70463.8 129 90
537      62374.6 130 90
541      55521.5 131 90
545      48668.4 132 90
549      41815.3 133 90
553      34962.3 134 90
557      28109.2 135 90
561      26483.1 136 90
565      26483.1 137 90
569      26483.1 138 90
573      26483.1 139 90
577      26483.1 140 90
581      26483.1 141 90
585      26483.1 142 90
589      26715.4 143 90
593      33568.4 144 90
597      40421.5 145 90
601      47274.6 146 90
605      54127.6 147 90
609      60980.7 148 90
613      69045.1 149 90
617      76020.5 150 90
621        82996 151 90
625      89971.4 152 90
629      96946.9 153 90
633       103922 154 90
637       110898 155 90
641       117873 156 90
645       124849 157 90
649       134221 158 90
653       141323 159 90
657       148425 160 90
661       155528 161 90
665       162630 162 90
669       169732 163 90
673       176835 164 90
677       183937 165 90
681       191039 166 90
685       201811 167 90
689       209044 168 90
693       216278 169 90
697       223512 170 90
701       230746 171 90
705       237980 172 90
709       245213 173 90
713       252447 174 90
717       264581 175 90
721       271951 176 90
725       279321 177 90
729       286692 178 90
733       294062 179 90
737       301432 180 90
741       308802 181 90
745       316173 182 90
749       329765 183 90
753       337277 184 90
757       344789 185 90
761       352301 186 90
765       359813 187 90
769       367325 188 90
773       374837 189 90
777       382349 190 90
781       397505 191 90
785       405165 192 90
789       412824 193 90
793       420483 194 90
797       428143 195 90
801       435802 196 90
805       443461 197 90
809       460143 198 90
813       467956 199 90
817       475768 200 90
821       483581 201 90
825       491393 202 90
829       499206 203 90
833       507018 204 90
837       525337 205 90
841       533309 206 90
845       541281 207 90
849       549253 208 90
853       557225 209 90
857       565197 210 90
861       573169 211 90
865       593248 212 90
869       601386 213 90
873       609524 214 90
877       617662 215 90
881       625800 216 90
885       633938 217 90
889       655737 218 90
893       664048 219 90
897       672360 220 90
901       680671 221 90
905       688982 222 90
909       697293 223 90
913       720943 224 90
917       729435 225 90
921       737927 226 90
925       746419 227 90
929       754911 228 90
933       763403 229 90
937       789048 230 90
941       797728 231 90
945       806409 232 90
949       815089 233 90
953       823770 234 90
957       851370 235 90
961       860248 236 90
965       869126 237 90
969       878003 238 90
973       886881 239 90
977       916591 240 90
981       925675 241 90
985       934759 242 90
989       943844 243 90
993       952928 244 90
997       984917 245 90
1001       994218 246 90
1005  1.00352e+06 247 90
1009  1.01282e+06 248 90
1013  1.04705e+06 249 90
1017  1.05658e+06 250 90
1021   1.0661e+06 251 90
1025  1.07563e+06 252 90
1029  1.08516e+06 253 90
1033  1.12205e+06 254 90
1037  1.13182e+06 255 90
1041  1.14159e+06 256 90
1045  1.18087e+06 257 90
1049  1.19089e+06 258 90

# Format of trapezoid gradients:
# id amplitude rise flat fall delay
# ..      Hz/m   us   us   us    us
[TRAP]
 2 -2.09578e+06 340    0 340 2470
 3           -0  10  540  10 880
 4   1.6276e+06 260  790 260   0
 6 -2.09572e+06 340    0 340 2470
 7     -15895.1 340    0 340 2470
 8     -7102.27  10  540  10 880
 9  1.62756e+06 260  790 260   0
10      12344.3 260  790 260   0
12 -2.09577e+06 340    0 340 2470
13     -6071.44 340    0 340 2470
14     -14204.5  10  540  10 880
15      4715.15 260  790 260   0
17 -2.09566e+06 340    0 340 2470
18     -21966.3 340    0 340 2470
19     -21306.8  10  540  10 880
20  1.62751e+06 260  790 260   0
21      17059.3 260  790 260   0
23 -2.09574e+06 340    0 340 2470
24     -12142.8 340    0 340 2470
25     -28409.1  10  540  10 880
26  1.62758e+06 260  790 260   0
27      9430.25 260  790 260   0
29     -2319.09 340    0 340 2470
30     -35511.4  10  540  10 880
31      1801.03 260  790 260   0
33  -2.0957e+06 340    0 340 2470
34     -18214.1 340    0 340 2470
35     -42613.6  10  540  10 880
36  1.62754e+06 260  790 260   0
37      14145.3 260  790 260   0
39 -2.09576e+06 340    0 340 2470
40     -8390.52 340    0 340 2470
41     -49715.9  10  540  10 880
42  1.62759e+06 260  790 260   0
43      6516.16 260  790 260   0
45 -2.09564e+06 340    0 340 2470
46     -24285.3 340    0 340 2470
47     -56818.2  10  540  10 880
48  1.62749e+06 260  790 260   0
49      18860.2 260  790 260   0
51 -2.09573e+06 340    0 340 2470
52     -14461.9 340    0 340 2470
53     -65104.2  20  520  20 880
54  1.62757e+06 260  790 260   0
55      11231.2 260  790 260   0
57     -4638.17 340    0 340 2470
58       -72338  20  520  20 880
59      3602.05 260  790 260   0
61 -2.09568e+06 340    0 340 2470
62     -20533.1 340    0 340 2470
63     -79571.8  20  520  20 880
64  1.62753e+06 260  790 260   0
65      15946.2 260  790 260   0
67 -2.09575e+06 340    0 340 2470
68     -10709.6 340    0 340 2470
69     -86805.6  20  520  20 880
70      8317.17 260  790 260   0
72     -885.813 340    0 340 2470
73     -94039.4  20  520  20 880
74      687.932 260  790 260   0
76 -2.09571e+06 340    0 340 2470
77     -16780.9 340    0 340 2470
78      -101273  20  520  20 880
79  1.62755e+06 260  790 260   0
80      13032.2 260  790 260   0
82     -6957.25 340    0 340 2470
83      -108507  20  520  20 880
84      5403.07 260  790 260   0
86     -22852.1 340    0 340 2470
87      -115741  20  520  20 880
88      17747.2 260  790 260   0
90     -13028.6 340    0 340 2470
91      -122975  20  520  20 880
92      10118.2 260  790 260   0
94      -3204.9 340    0 340 2470
95      -132665  30  500  30 880
96      2488.96 260  790 260   0
98 -2.09569e+06 340    0 340 2470
99     -19099.9 340    0 340 2470
100      -140035  30  500  30 880
101      14833.2 260  790 260   0
103     -9276.32 340    0 340 2470
104      -147406  30  500  30 880
105      7204.09 260  790 260   0
107 -2.09563e+06 340    0 340 2470
108       -25171 340    0 340 2470
109      -154776  30  500  30 880
110      19548.1 260  790 260   0
112     -15347.7 340    0 340 2470
113      -162146  30  500  30 880
114      11919.2 260  790 260   0
116     -5523.98 340    0 340 2470
117      -169517  30  500  30 880
118      4289.98 260  790 260   0
120 -2.09567e+06 340    0 340 2470
121     -21418.9 340    0 340 2470
122      -176887  30  500  30 880
123  1.62752e+06 260  790 260   0
124      16634.1 260  790 260   0
126     -11595.4 340    0 340 2470
127      -184257  30  500  30 880
128      9005.09 260  790 260   0
130     -1771.63 340    0 340 2470
131      -195312  40  480  40 880
132      1375.86 260  790 260   0
134     -17666.7 340    0 340 2470
135      -202825  40  480  40 880
136      13720.1 260  790 260   0
138     -7843.06 340    0 340 2470
139      -210337  40  480  40 880
140         6091 260  790 260   0
142 -2.09565e+06 340    0 340 2470
143     -23737.8 340    0 340 2470
144      -217849  40  480  40 880
145   1.6275e+06 260  790 260   0
146      18435.1 260  790 260   0
148     -13914.4 340    0 340 2470
149      -225361  40  480  40 880
150      10806.1 260  790 260   0
152     -4090.71 340    0 340 2470
153      -232873  40  480  40 880
154      3176.89 260  790 260   0
156     -19985.7 340    0 340 2470
157      -240385  40  480  40 880
158      15521.1 260  790 260   0
160     -10162.1 340    0 340 2470
161      -247897  40  480  40 880
162      7892.01 260  790 260   0
164      -338.35 340    0 340 2470
165      -255409  40  480  40 880
166      262.766 260  790 260   0
168     -16233.5 340    0 340 2470
169      -268076  50  460  50 880
170      12607.1 260  790 260   0
172     -6409.79 340    0 340 2470
173      -275735  50  460  50 880
174      4977.91 260  790 260   0
176     -22304.7 340    0 340 2470
177      -283395  50  460  50 880
178        17322 260  790 260   0
180     -12481.2 340    0 340 2470
181      -291054  50  460  50 880
182      9693.01 260  790 260   0
184     -2657.44 340    0 340 2470
185      -298713  50  460  50 880
186      2063.79 260  790 260   0
188     -18552.5 340    0 340 2470
189      -306373  50  460  50 880
190        14408 260  790 260   0
192     -8728.87 340    0 340 2470
193      -314032  50  460  50 880
194      6778.93 260  790 260   0
196     -24623.6 340    0 340 2470
197      -328125  60  440  60 880
198      19122.9 260  790 260   0
200     -14800.2 340    0 340 2470
201      -335937  60  440  60 880
202        11494 260  790 260   0
204     -4976.52 340    0 340 2470
205      -343750  60  440  60 880
206      3864.82 260  790 260   0
208     -20871.5 340    0 340 2470
209      -351562  60  440  60 880
210        16209 260  790 260   0
212     -11047.9 340    0 340 2470
213      -359375  60  440  60 880
214      8579.94 260  790 260   0
216     -1224.16 340    0 340 2470
217      -367187  60  440  60 880
218      950.698 260  790 260   0
220     -17119.2 340    0 340 2470
221      -375000  60  440  60 880
222        13295 260  790 260   0
224      -7295.6 340    0 340 2470
225      -382812  60  440  60 880
226      5665.84 260  790 260   0
228     -23190.4 340    0 340 2470
229      -398597  70  420  70 880
230      18009.9 260  790 260   0
232       -13367 340    0 340 2470
233      -406569  70  420  70 880
234      10380.9 260  790 260   0
236     -3543.25 340    0 340 2470
237      -414541  70  420  70 880
238      2751.72 260  790 260   0
240     -19438.2 340    0 340 2470
241      -422513  70  420  70 880
242      15095.9 260  790 260   0
244     -9614.67 340    0 340 2470
245      -430485  70  420  70 880
246      7466.85 260  790 260   0
248 -2.09562e+06 340    0 340 2470
249     -25509.3 340    0 340 2470
250      -438457  70  420  70 880
251  1.62748e+06 260  790 260   0
252      19810.8 260  790 260   0
254       -15686 340    0 340 2470
255      -446429  70  420  70 880
256      12181.9 260  790 260   0
258     -5862.33 340    0 340 2470
259      -463867  80  400  80 880
260      4552.75 260  790 260   0
262     -21757.2 340    0 340 2470
263      -472005  80  400  80 880
264      16896.9 260  790 260   0
266     -11933.7 340    0 340 2470
267      -480143  80  400  80 880
268      9267.86 260  790 260   0
270     -2109.98 340    0 340 2470
271      -488281  80  400  80 880
272      1638.63 260  790 260   0
274       -18005 340    0 340 2470
275      -496419  80  400  80 880
276      13982.9 260  790 260   0
278     -8181.41 340    0 340 2470
279      -504557  80  400  80 880
280      6353.77 260  790 260   0
282     -24076.2 340    0 340 2470
283      -523604  90  380  90 880
284      18697.8 260  790 260   0
286     -14252.8 340    0 340 2470
287      -531915  90  380  90 880
288      11068.8 260  790 260   0
290     -4429.06 340    0 340 2470
291      -540226  90  380  90 880
292      3439.66 260  790 260   0
294       -20324 340    0 340 2470
295      -548537  90  380  90 880
296      15783.8 260  790 260   0
298     -10500.5 340    0 340 2470
299      -556848  90  380  90 880
300      8154.78 260  790 260   0
302     -676.701 340    0 340 2470
303      -565160  90  380  90 880
304      525.533 260  790 260   0
306     -16571.8 340    0 340 2470
307      -573471  90  380  90 880
308      12869.8 260  790 260   0
310     -6748.14 340    0 340 2470
311      -594429 100  360 100 880
312      5240.68 260  790 260   0
314       -22643 340    0 340 2470
315      -602921 100  360 100 880
316      17584.8 260  790 260   0
318     -12819.5 340    0 340 2470
319      -611413 100  360 100 880
320      9955.78 260  790 260   0
322     -2995.79 340    0 340 2470
323      -619905 100  360 100 880
324      2326.56 260  790 260   0
326     -18890.8 340    0 340 2470
327      -628397 100  360 100 880
328      14670.8 260  790 260   0
330     -9067.21 340    0 340 2470
331      -636889 100  360 100 880
332      7041.69 260  790 260   0
334     -24961.9 340    0 340 2470
335      -659722 110  340 110 880
336      19385.7 260  790 260   0
338     -15138.6 340    0 340 2470
339      -668403 110  340 110 880
340      11756.8 260  790 260   0
342     -5314.87 340    0 340 2470
343      -677083 110  340 110 880
344      4127.58 260  790 260   0
346     -21209.8 340    0 340 2470
347      -685764 110  340 110 880
348      16471.7 260  790 260   0
350     -11386.3 340    0 340 2470
351      -694444 110  340 110 880
352       8842.7 260  790 260   0
354     -1562.51 340    0 340 2470
355      -719105 120  320 120 880
356      1213.46 260  790 260   0
358     -17457.6 340    0 340 2470
359      -727983 120  320 120 880
360      13557.7 260  790 260   0
362     -7633.95 340    0 340 2470
363      -736861 120  320 120 880
364       5928.6 260  790 260   0
366     -23528.7 340    0 340 2470
367      -745739 120  320 120 880
368      18272.7 260  790 260   0
370     -13705.3 340    0 340 2470
371      -754616 120  320 120 880
372      10643.7 260  790 260   0
374      -3881.6 340    0 340 2470
375      -763494 120  320 120 880
376      3014.49 260  790 260   0
378     -19776.6 340    0 340 2470
379      -790334 130  300 130 880
380      15358.7 260  790 260   0
382     -9953.02 340    0 340 2470
383      -799419 130  300 130 880
384      7729.62 260  790 260   0
386     -129.238 340    0 340 2470
387      -808503 130  300 130 880
388      100.368 260  790 260   0
390     -16024.4 340    0 340 2470
391      -817587 130  300 130 880
392      12444.7 260  790 260   0
394     -6200.68 340    0 340 2470
395      -826672 130  300 130 880
396      4815.51 260  790 260   0
398     -22095.6 340    0 340 2470
399      -855655 140  280 140 880
400      17159.6 260  790 260   0
402     -12272.1 340    0 340 2470
403      -864955 140  280 140 880
404      9530.62 260  790 260   0
406     -2448.33 340    0 340 2470
407      -874256 140  280 140 880
408       1901.4 260  790 260   0
410     -18343.4 340    0 340 2470
411      -883557 140  280 140 880
412      14245.6 260  790 260   0
414     -8519.76 340    0 340 2470
415      -892857 140  280 140 880
416      6616.53 260  790 260   0
418     -24414.5 340    0 340 2470
419      -924162 150  260 150 880
420      18960.6 260  790 260   0
422     -14591.1 340    0 340 2470
423      -933689 150  260 150 880
424      11331.6 260  790 260   0
426     -4767.41 340    0 340 2470
427      -943216 150  260 150 880
428      3702.42 260  790 260   0
430     -20662.4 340    0 340 2470
431      -952744 150  260 150 880
432      16046.6 260  790 260   0
434     -10838.8 340    0 340 2470
435      -986328 160  240 160 880
436      8417.54 260  790 260   0
438     -1015.05 340    0 340 2470
439      -996094 160  240 160 880
440      788.299 260  790 260   0
442     -16910.1 340    0 340 2470
443 -1.00586e+06 160  240 160 880
444      13132.6 260  790 260   0
446     -7086.49 340    0 340 2470
447 -1.01562e+06 160  240 160 880
448      5503.44 260  790 260   0
450     -22981.3 340    0 340 2470
451 -1.05168e+06 170  220 170 880
452      17847.5 260  790 260   0
454     -13157.9 340    0 340 2470
455  -1.0617e+06 170  220 170 880
456      10218.5 260  790 260   0
458     -3334.14 340    0 340 2470
459 -1.07171e+06 170  220 170 880
460      2589.33 260  790 260   0
462     -19229.1 340    0 340 2470
463 -1.08173e+06 170  220 170 880
464      14933.5 260  790 260   0
466     -9405.56 340    0 340 2470
467 -1.12048e+06 180  200 180 880
468      7304.46 260  790 260   0
470     -25300.2 340    0 340 2470
471 -1.13076e+06 180  200 180 880
472      19648.4 260  790 260   0
474     -15476.9 340    0 340 2470
475 -1.14104e+06 180  200 180 880
476      12019.5 260  790 260   0
478     -5653.22 340    0 340 2470
479 -1.18243e+06 190  180 190 880
480      4390.35 260  790 260   0
482     -21548.1 340    0 340 2470
483 -1.19299e+06 190  180 190 880
484      16734.5 260  790 260   0
486     -11724.6 340    0 340 2470
487 -1.20355e+06 190  180 190 880
488      9105.46 260  790 260   0
490     -1900.86 340    0 340 2470
491 -1.24783e+06 200  160 200 880
492      1476.23 260  790 260   0
494     -17795.9 340    0 340 2470
495 -1.25868e+06 200  160 200 880
