# Pulseq sequence file
# Created by MATLAB mr toolbox

[VERSION]
major 1
minor 4
revision 0

[DEFINITIONS]
AdcRasterTime 1e-07 
BlockDurationRaster 1e-05 
FOV 0.256 0.256 0.256 
GradientRasterTime 1e-05 
Name NaN 
RadiofrequencyRasterTime 1e-06 
TotalDuration 1.48896 

# Format of blocks:
# NUM DUR RF  GX  GY  GZ  ADC  EXT
[BLOCKS]
   1 119   1   2   0   1  0  0
   2 169   0   4   0   3  0  0
   3 119   2   6   7   5  0  0
   4 169   0   9  10   8  0  0
   5 119   3  12  13  11  0  0
   6 169   0   4  15  14  0  0
   7 119   4  17  18  16  0  0
   8 169   0  20  21  19  0  0
   9 119   5  23  24  22  0  0
  10 169   0  26  27  25  0  0
  11 119   6   2   0   1  0  0
  12 169   0   4   0   3  1  0
  13 119   7   6   7   5  0  0
  14 169   0   9  10   8  2  0
  15 119   8  12  13  11  0  0
  16 169   0   4  15  14  3  0
  17 119   9  17  18  16  0  0
  18 169   0  20  21  19  4  0
  19 119  10  23  24  22  0  0
  20 169   0  26  27  25  5  0
  21 119   6   2  29  28  0  0
  22 169   0   4  31  30  1  0
  23 119  11  33  34  32  0  0
  24 169   0  36  37  35  6  0
  25 119  12  39  40  38  0  0
  26 169   0  42  43  41  7  0
  27 119  13  45  46  44  0  0
  28 169   0  48  49  47  8  0
  29 119  14  51  52  50  0  0
  30 169   0  54  55  53  9  0
  31 119   1  12  57  56  0  0
  32 169   0   4  59  58 10  0
  33 119  15  61  62  60  0  0
  34 169   0  64  65  63 11  0
  35 119  16  67  68  66  0  0
  36 169   0  26  70  69 12  0
  37 119  13   2  72  71  0  0
  38 169   0   4  74  73  8  0
  39 119  17  76  77  75  0  0
  40 169   0  79  80  78 13  0
  41 119   5  12  82  81  0  0
  42 169   0   4  84  83 14  0
  43 119  18  17  86  85  0  0
  44 169   0  20  88  87 15  0
  45 119  19  23  90  89  0  0
  46 169   0  54  92  91 16  0
  47 119   9   2  94  93  0  0
  48 169   0   4  96  95  4  0
  49 119  20  98  99  97  0  0
  50 169   0  36 101 100 17  0
  51 119  10  39 103 102  0  0
  52 169   0  42 105 104  5  0
  53 119  18 107 108 106  0  0
  54 169   0  48 110 109 15  0
  55 119  21   6 112 111  0  0
  56 169   0   9 114 113 18  0
  57 119   4  12 116 115  0  0
  58 169   0   4 118 117 19  0
  59 119  22 120 121 119  0  0
  60 169   0 123 124 122 20  0
  61 119  14  67 126 125  0  0
  62 169   0  26 128 127  9  0
  63 119  15   2 130 129  0  0
  64 169   0   4 132 131 11  0
  65 119  23  76 134 133  0  0
  66 169   0  79 136 135 21  0
  67 119   2  12 138 137  0  0
  68 169   0  42 140 139 22  0
  69 119  22 142 143 141  0  0
  70 169   0 145 146 144 20  0
  71 119  17  51 148 147  0  0
  72 169   0  54 150 149 13  0
  73 119  11   2 152 151  0  0
  74 169   0   4 154 153  6  0
  75 119  24  61 156 155  0  0
  76 169   0  64 158 157 23  0
  77 119   7  39 160 159  0  0
  78 169   0  42 162 161  2  0
  79 119  20   2 164 163  0  0
  80 169   0   4 166 165 17  0
  81 119  20   6 168 167  0  0
  82 169   0   9 170 169 17  0
  83 119   7  12 172 171  0  0
  84 169   0   4 174 173  2  0
  85 119  24  17 176 175  0  0
  86 169   0  20 178 177 23  0
  87 119  11  23 180 179  0  0
  88 169   0  26 182 181  6  0
  89 119  17   2 184 183  0  0
  90 169   0   4 186 185 13  0
  91 119  22  33 188 187  0  0
  92 169   0  36 190 189 20  0
  93 119   2  39 192 191  0  0
  94 169   0  42 194 193 22  0
  95 119  23  45 196 195  0  0
  96 169   0  48 198 197 21  0
  97 119  15  51 200 199  0  0
  98 169   0   9 202 201 11  0
  99 119  14  12 204 203  0  0
 100 169   0   4 206 205  9  0
 101 119  22  61 208 207  0  0
 102 169   0 123 210 209 20  0
 103 119   4  67 212 211  0  0
 104 169   0  26 214 213 19  0
 105 119  21   2 216 215  0  0
 106 169   0   4 218 217 18  0
 107 119  18  76 220 219  0  0
 108 169   0  79 222 221 15  0
 109 119  10  12 224 223  0  0
 110 169   0  42 226 225  5  0
 111 119  20 142 228 227  0  0
 112 169   0 145 230 229 17  0
 113 119   9  23 232 231  0  0
 114 169   0  54 234 233  4  0
 115 119  19   2 236 235  0  0
 116 169   0   4 238 237 16  0
 117 119  18  98 240 239  0  0
 118 169   0  64 242 241 15  0
 119 119   5  39 244 243  0  0
 120 169   0  42 246 245 14  0
 121 119  17 248 249 247  0  0
 122 169   0 251 252 250 13  0
 123 119  13   6 254 253  0  0
 124 169   0   9 256 255  8  0
 125 119  16  12 258 257  0  0
 126 169   0   4 260 259 12  0
 127 119  15 120 262 261  0  0
 128 169   0 123 264 263 11  0
 129 119   1  67 266 265  0  0
 130 169   0  26 268 267 10  0
 131 119  14   2 270 269  0  0
 132 169   0   4 272 271  9  0
 133 119  13  33 274 273  0  0
 134 169   0  36 276 275  8  0
 135 119  12  39 278 277  0  0
 136 169   0  42 280 279  7  0
 137 119  11  45 282 281  0  0
 138 169   0 145 284 283  6  0
 139 119   6  51 286 285  0  0
 140 169   0  54 288 287  1  0
 141 119  10   2 290 289  0  0
 142 169   0   4 292 291  5  0
 143 119   9  61 294 293  0  0
 144 169   0  64 296 295  4  0
 145 119   8  67 298 297  0  0
 146 169   0  26 300 299  3  0
 147 119   7   2 302 301  0  0
 148 169   0   4 304 303  2  0
 149 119   6  76 306 305  0  0
 150 169   0  79 308 307  1  0
 151 119   5  12 310 309  0  0
 152 169   0   4 312 311 14  0
 153 119   4  17 314 313  0  0
 154 169   0  20 316 315 19  0
 155 119   3  23 318 317  0  0
 156 169   0  54 320 319 24  0
 157 119   2   2 322 321  0  0
 158 169   0   4 324 323 22  0
 159 119   1  98 326 325  0  0
 160 169   0  36 328 327 10  0
 161 119   1  39 330 329  0  0
 162 169   0  42 332 331 10  0
 163 119   2 107 334 333  0  0
 164 169   0  48 336 335 22  0
 165 119   3  51 338 337  0  0
 166 169   0   9 340 339 24  0
 167 119   4  12 342 341  0  0
 168 169   0   4 344 343 19  0
 169 119   5 120 346 345  0  0
 170 169   0 123 348 347 14  0
 171 119   6  67 350 349  0  0
 172 169   0  26 352 351  1  0
 173 119   7   2 354 353  0  0
 174 169   0   4 356 355  2  0
 175 119   8  76 358 357  0  0
 176 169   0  79 360 359  3  0
 177 119   9  12 362 361  0  0
 178 169   0  42 364 363  4  0
 179 119  10 142 366 365  0  0
 180 169   0 145 368 367  5  0
 181 119   6  51 370 369  0  0
 182 169   0  54 372 371  1  0
 183 119  11   2 374 373  0  0
 184 169   0   4 376 375  6  0
 185 119  12  98 378 377  0  0
 186 169   0  64 380 379  7  0
 187 119  13  39 382 381  0  0
 188 169   0  42 384 383  8  0
 189 119  14   2 386 385  0  0
 190 169   0   4 388 387  9  0
 191 119   1   6 390 389  0  0
 192 169   0   9 392 391 10  0
 193 119  15  12 394 393  0  0
 194 169   0   4 396 395 11  0
 195 119  16  17 398 397  0  0
 196 169   0  20 400 399 12  0
 197 119  13  23 402 401  0  0
 198 169   0  26 404 403  8  0
 199 119  17   2 406 405  0  0
 200 169   0   4 408 407 13  0
 201 119   5  33 410 409  0  0
 202 169   0  36 412 411 14  0
 203 119  18  39 414 413  0  0
 204 169   0  42 416 415 15  0
 205 119  19  45 418 417  0  0
 206 169   0  48 420 419 16  0
 207 119   9  51 422 421  0  0
 208 169   0   9 424 423  4  0
 209 119  20  12 426 425  0  0
 210 169   0   4 428 427 17  0
 211 119  10  61 430 429  0  0
 212 169   0  64 432 431  5  0
 213 119  18  67 434 433  0  0
 214 169   0  26 436 435 15  0
 215 119  21   2 438 437  0  0
 216 169   0   4 440 439 18  0
 217 119   4  76 442 441  0  0
 218 169   0  79 444 443 19  0
 219 119  22  12 446 445  0  0
 220 169   0  42 448 447 20  0
 221 119  14 142 450 449  0  0
 222 169   0  20 452 451  9  0
 223 119  15  23 454 453  0  0
 224 169   0  54 456 455 11  0
 225 119  23   2 458 457  0  0
 226 169   0   4 460 459 21  0
 227 119   2  98 462 461  0  0
 228 169   0  36 464 463 22  0
 229 119  22  39 466 465  0  0
 230 169   0  42 468 467 20  0
 231 119  17 107 470 469  0  0
 232 169   0  48 472 471 13  0
 233 119  11   6 474 473  0  0
 234 169   0   9 476 475  6  0
 235 119  24  12 478 477  0  0
 236 169   0   4 480 479 23  0
 237 119   7 120 482 481  0  0
 238 169   0 123 484 483  2  0
 239 119  20  67 486 485  0  0
 240 169   0  26 488 487 17  0
 241 119  20   2 490 489  0  0
 242 169   0   4 492 491 17  0
 243 119   7  33 494 493  0  0
 244 169   0  79 496 495  2  0
 245 119  24  39 498 497  0  0
 246 169   0  42 500 499 23  0
 247 119  11  45 502 501  0  0
 248 169   0 145 504 503  6  0
 249 119  17  51 506 505  0  0
 250 169   0  54 508 507 13  0
 251 119  22   2 510 509  0  0
 252 169   0   4 512 511 20  0
 253 119   2  61 514 513  0  0
 254 169   0  64 516 515 22  0
 255 119  23  67 518 517  0  0
 256 169   0  26 520 519 21  0
 257 119  15   2 522 521  0  0
 258 169   0   4 524 523 11  0
 259 119  14   6 526 525  0  0
 260 169   0  79 528 527  9  0
 261 119  22  12 530 529  0  0
 262 169   0   4 532 531 20  0
 263 119   4  17 534 533  0  0
 264 169   0  20 536 535 19  0
 265 119  21  23 538 537  0  0
 266 169   0  54 540 539 18  0
 267 119  18   2 542 541  0  0
 268 169   0   4 544 543 15  0
 269 119  10  33 546 545  0  0
 270 169   0  36 548 547  5  0
 271 119  20  39 550 549  0  0
 272 169   0  42 552 551 17  0
 273 119   9 107 554 553  0  0
 274 169   0  48 556 555  4  0
 275 119  19  51 558 557  0  0
 276 169   0   9 560 559 16  0
 277 119  18  12 562 561  0  0
 278 169   0   4 564 563 15  0
 279 119   5 120 566 565  0  0
 280 169   0 123 568 567 14  0
 281 119  17  67 570 569  0  0
 282 169   0  26 572 571 13  0
 283 119  13   2 574 573  0  0
 284 169   0   4 576 575  8  0
 285 119  16  76 578 577  0  0
 286 169   0  79 580 579 12  0
 287 119  15  12 582 581  0  0
 288 169   0  42 584 583 11  0
 289 119   1 142 586 585  0  0
 290 169   0 145 588 587 10  0
 291 119  14  23 590 589  0  0
 292 169   0  54 592 591  9  0
 293 119  13   2 594 593  0  0
 294 169   0   4 596 595  8  0
 295 119  12  98 598 597  0  0
 296 169   0  64 600 599  7  0
 297 119  11  39 602 601  0  0
 298 169   0  42 604 603  6  0
 299 119   6 248 606 605  0  0
 300 169   0 251 608 607  1  0
 301 119  10   6 610 609  0  0
 302 169   0   9 612 611  5  0
 303 119   9  12 614 613  0  0
 304 169   0   4 616 615  4  0
 305 119   8 120 618 617  0  0
 306 169   0 123 620 619  3  0
 307 119   7  67 622 621  0  0
 308 169   0  26 624 623  2  0
 309 119   6   2 626 625  0  0
 310 169   0   4 628 627  1  0
 311 119   5  33 630 629  0  0
[RF]
1      85.1853 1 2 0 100 0 2.04204
2      85.1853 1 2 0 100 0 4.08407
3      85.1853 1 2 0 100 0 1.88496
4      85.1853 1 2 0 100 0 1.72788
5      85.1853 1 2 0 100 0 3.61283
6      85.1853 1 2 0 100 0 1.25664
7      85.1853 1 2 0 100 0 0.942478
8      85.1853 1 2 0 100 0 2.67035
9      85.1853 1 2 0 100 0 0.15708
10      85.1853 1 2 0 100 0 5.96903
11      85.1853 1 2 0 100 0 4.86947
12      85.1853 1 2 0 100 0 4.24115
13      85.1853 1 2 0 100 0 5.65487
14      85.1853 1 2 0 100 0 2.82743
15      85.1853 1 2 0 100 0 3.29867
16      85.1853 1 2 0 100 0 0.314159
17      85.1853 1 2 0 100 0 0.471239
18      85.1853 1 2 0 100 0 2.51327
19      85.1853 1 2 0 100 0 3.45575
20      85.1853 1 2 0 100 0 5.18363
21      85.1853 1 2 0 100 0 1.09956
22      85.1853 1 2 0 100 0 4.39823
23      85.1853 1 2 0 100 0 5.81195
24      85.1853 1 2 0 100 0 5.02655

# Format of arbitrary gradients:
#   time_shape_id of 0 means default timing (stepping with grad_raster starting at 1/2 of grad_raster)
# id amplitude amp_shape_id time_shape_id delay
# ..      Hz/m       ..         ..          us
[GRADIENTS]
1  1.40055e+06 3 4 90
5   1.3897e+06 5 4 90
11  1.37885e+06 6 4 90
16  1.33103e+06 7 8 90
22  1.32047e+06 9 8 90
28  1.27544e+06 10 11 90
32  1.26516e+06 12 11 90
38  1.25488e+06 13 11 90
44  1.21269e+06 14 15 90
50  1.20267e+06 16 15 90
56  1.19266e+06 17 15 90
60  1.18264e+06 18 15 90
66  1.14331e+06 19 20 90
71  1.13354e+06 21 20 90
75  1.12378e+06 22 20 90
81  1.11401e+06 23 20 90
85  1.07732e+06 24 25 90
89  1.06779e+06 26 25 90
93  1.05826e+06 27 25 90
97  1.04873e+06 28 25 90
102  1.01446e+06 29 30 90
106  1.00516e+06 31 30 90
111       995861 32 30 90
115       986561 33 30 90
119       954533 34 35 90
125       945449 36 35 90
129       936364 37 35 90
133       927280 38 35 90
137       918196 39 35 90
141       888450 40 41 90
147       879572 42 41 90
151       870694 43 41 90
155       861816 44 41 90
159       852939 45 41 90
163       825304 46 47 90
167       816623 48 47 90
171       807943 49 47 90
175       799262 50 47 90
179       790582 51 47 90
183       764903 52 53 90
187       756411 54 53 90
191       747919 55 53 90
195       739428 56 53 90
199       730936 57 53 90
203       722444 58 53 90
207       698762 59 60 90
211       690450 61 60 90
215       682139 62 60 90
219       673828 63 60 90
223       665517 64 60 90
227       657206 65 60 90
231       635376 66 67 90
235       627238 68 67 90
239       619100 69 67 90
243       610962 70 67 90
247       602824 71 67 90
253       594686 72 67 90
257       574577 73 74 90
261       566606 75 74 90
265       558634 76 74 90
269       550662 77 74 90
273       542690 78 74 90
277       534718 79 74 90
281       526746 80 74 90
285       508398 81 82 90
289       500586 83 82 90
293       492773 84 82 90
297       484961 85 82 90
301       477148 86 82 90
305       469336 87 82 90
309       461523 88 82 90
313       444815 89 90 90
317       437155 91 90 90
321       429496 92 90 90
325       421837 93 90 90
329       414177 94 90 90
333       406518 95 90 90
337       398859 96 90 90
341       391199 97 90 90
345       376164 98 99 90
349       368652 100 99 90
353       361140 101 99 90
357       353628 102 99 90
361       346116 103 99 90
365       338604 104 99 90
369       331092 105 99 90
373       317475 106 107 90
377       310105 108 107 90
381       302734 109 107 90
385       295364 110 107 90
389       287994 111 107 90
393       280624 112 107 90
397       273253 113 107 90
401       265883 114 107 90
405       253725 115 116 90
409       246492 117 116 90
413       239258 118 116 90
417       232024 119 116 90
421       224790 120 116 90
425       217556 121 116 90
429       210323 122 116 90
433       203089 123 116 90
437       195855 124 116 90
441       185192 125 126 90
445       178089 127 126 90
449       170987 128 126 90
453       163885 129 126 90
457       156783 130 126 90
461       149680 131 126 90
465       142578 132 126 90
469       135476 133 126 90
473       126081 134 135 90
477       119106 136 135 90
481       112130 137 135 90
485       105155 138 135 90
489      98179.4 139 135 90
493        91204 140 135 90
497      84228.5 141 135 90
501      77253.1 142 135 90
505      70277.6 143 135 90
509      62191.6 144 145 90
513      55338.5 146 145 90
517      48485.5 147 145 90
521      41632.4 148 145 90
525      34779.3 149 145 90
529      27926.3 150 145 90
533      21073.2 151 145 90
537      19531.3 152 145 90
541      19531.3 153 145 90
545      19531.3 154 145 90
549      19531.3 155 145 90
553      19531.3 156 145 90
557      20045.2 157 145 90
561      26898.3 158 145 90
565      33751.4 159 145 90
569      40604.4 160 145 90
573      47457.5 161 145 90
577      54310.6 162 145 90
581      61163.7 163 145 90
585      69231.3 164 135 90
589      76206.8 165 135 90
593      83182.2 166 135 90
597      90157.6 167 135 90
601      97133.1 168 135 90
605       104109 169 135 90
609       111084 170 135 90
613       118059 171 135 90
617       125035 172 135 90
621       134411 173 126 90
625       141513 174 126 90
629       148615 175 126 90
633       155717 176 126 90
637       162820 177 126 90
641       169922 178 126 90
645       177024 179 126 90
649       184126 180 126 90
653       191229 181 126 90
657       202004 182 116 90
661       209238 183 116 90
665       216471 184 116 90
669       223705 185 116 90
673       230939 186 116 90
677       238173 187 116 90
681       245407 188 116 90
685       252640 189 116 90
689       264777 190 107 90
693       272148 191 107 90
697       279518 192 107 90
701       286888 193 107 90
705       294259 194 107 90
709       301629 195 107 90
713       308999 196 107 90
717       316369 197 107 90
721       329965 198 99 90
725       337477 199 99 90
729       344989 200 99 90
733       352502 201 99 90
737       360014 202 99 90
741       367526 203 99 90
745       375038 204 99 90
749       382550 205 99 90
753       397710 206 90 90
757       405369 207 90 90
761       413028 208 90 90
765       420688 209 90 90
769       428347 210 90 90
773       436006 211 90 90
777       443666 212 90 90
781       460352 213 82 90
785       468164 214 82 90
789       475977 215 82 90
793       483789 216 82 90
797       491602 217 82 90
801       499414 218 82 90
805       507227 219 82 90
809       525550 220 74 90
813       533522 221 74 90
817       541494 222 74 90
821       549466 223 74 90
825       557438 224 74 90
829       565410 225 74 90
833       573382 226 74 90
837       593465 227 67 90
841       601603 228 67 90
845       609741 229 67 90
849       617879 230 67 90
853       626017 231 67 90
857       634155 232 67 90
861       655959 233 60 90
865       664270 234 60 90
869       672581 235 60 90
873       680893 236 60 90
877       689204 237 60 90
881       697515 238 60 90
885       721170 239 53 90
889       729662 240 53 90
893       738154 241 53 90
897       746646 242 53 90
901       755138 243 53 90
905       763629 244 53 90
909       789280 245 47 90
913       797960 246 47 90
917       806641 247 47 90
921       815321 248 47 90
925       824002 249 47 90
929       851607 250 41 90
933       860485 251 41 90
937       869363 252 41 90
941       878240 253 41 90
945       887118 254 41 90
949       916833 255 35 90
953       925918 256 35 90
957       935002 257 35 90
961       944086 258 35 90
965       953170 259 35 90
969       985166 260 30 90
973       994466 261 30 90
977  1.00377e+06 262 30 90
981  1.01307e+06 263 30 90
985   1.0473e+06 264 25 90
989  1.05683e+06 265 25 90
993  1.06636e+06 266 25 90
997  1.07589e+06 267 25 90
1001  1.08541e+06 268 25 90
1005  1.12231e+06 269 20 90
1009  1.13208e+06 270 20 90
1013  1.14185e+06 271 20 90
1017  1.18114e+06 272 15 90
1021  1.19116e+06 273 15 90
1025  1.20117e+06 274 15 90
1029  1.21119e+06 275 15 90
1033  1.25334e+06 276 11 90
1037  1.26362e+06 277 11 90
1041   1.2739e+06 278 11 90
1045  1.31889e+06 279 8 90
1049  1.32944e+06 280 8 90

# Format of trapezoid gradients:
# id amplitude rise flat fall delay
# ..      Hz/m   us   us   us    us
[TRAP]
 2 -2.09578e+06 340    0 340 510
 3      -724638 120  570 120 880
 4   1.6276e+06 260  790 260   0
 6 -2.09572e+06 340    0 340 510
 7     -15895.1 340    0 340 510
 8      -730299 120  570 120 880
 9  1.62756e+06 260  790 260   0
10      12344.3 260  790 260   0
12 -2.09577e+06 340    0 340 510
13     -6071.44 340    0 340 510
14      -735960 120  570 120 880
15      4715.15 260  790 260   0
17 -2.09566e+06 340    0 340 510
18     -21966.3 340    0 340 510
19      -741621 120  570 120 880
20  1.62751e+06 260  790 260   0
21      17059.3 260  790 260   0
23 -2.09574e+06 340    0 340 510
24     -12142.8 340    0 340 510
25      -747283 120  570 120 880
26  1.62758e+06 260  790 260   0
27      9430.25 260  790 260   0
29     -2319.09 340    0 340 510
30      -752944 120  570 120 880
31      1801.03 260  790 260   0
33  -2.0957e+06 340    0 340 510
34     -18214.1 340    0 340 510
35      -758605 120  570 120 880
36  1.62754e+06 260  790 260   0
37      14145.3 260  790 260   0
39 -2.09576e+06 340    0 340 510
40     -8390.52 340    0 340 510
41      -764266 120  570 120 880
42  1.62759e+06 260  790 260   0
43      6516.16 260  790 260   0
45 -2.09564e+06 340    0 340 510
46     -24285.3 340    0 340 510
47      -781250 130  550 130 880
48  1.62749e+06 260  790 260   0
49      18860.2 260  790 260   0
51 -2.09573e+06 340    0 340 510
52     -14461.9 340    0 340 510
53      -786994 130  550 130 880
54  1.62757e+06 260  790 260   0
55      11231.2 260  790 260   0
57     -4638.17 340    0 340 510
58      -792739 130  550 130 880
59      3602.05 260  790 260   0
61 -2.09568e+06 340    0 340 510
62     -20533.1 340    0 340 510
63      -798483 130  550 130 880
64  1.62753e+06 260  790 260   0
65      15946.2 260  790 260   0
67 -2.09575e+06 340    0 340 510
68     -10709.6 340    0 340 510
69      -804228 130  550 130 880
70      8317.17 260  790 260   0
72     -885.813 340    0 340 510
73      -809972 130  550 130 880
74      687.932 260  790 260   0
76 -2.09571e+06 340    0 340 510
77     -16780.9 340    0 340 510
78      -815717 130  550 130 880
79  1.62755e+06 260  790 260   0
80      13032.2 260  790 260   0
82     -6957.25 340    0 340 510
83      -821461 130  550 130 880
84      5403.07 260  790 260   0
86     -22852.1 340    0 340 510
87      -827206 130  550 130 880
88      17747.2 260  790 260   0
90     -13028.6 340    0 340 510
91      -845382 140  530 140 880
92      10118.2 260  790 260   0
94      -3204.9 340    0 340 510
95      -851213 140  530 140 880
96      2488.96 260  790 260   0
98 -2.09569e+06 340    0 340 510
99     -19099.9 340    0 340 510
100      -857043 140  530 140 880
101      14833.2 260  790 260   0
103     -9276.32 340    0 340 510
104      -862873 140  530 140 880
105      7204.09 260  790 260   0
107 -2.09563e+06 340    0 340 510
108       -25171 340    0 340 510
109      -868703 140  530 140 880
110      19548.1 260  790 260   0
112     -15347.7 340    0 340 510
113      -874534 140  530 140 880
114      11919.2 260  790 260   0
116     -5523.98 340    0 340 510
117      -880364 140  530 140 880
118      4289.98 260  790 260   0
120 -2.09567e+06 340    0 340 510
121     -21418.9 340    0 340 510
122      -886194 140  530 140 880
123  1.62752e+06 260  790 260   0
124      16634.1 260  790 260   0
126     -11595.4 340    0 340 510
127      -892024 140  530 140 880
128      9005.09 260  790 260   0
130     -1771.63 340    0 340 510
131      -911458 150  510 150 880
132      1375.86 260  790 260   0
134     -17666.7 340    0 340 510
135      -917377 150  510 150 880
136      13720.1 260  790 260   0
138     -7843.06 340    0 340 510
139      -923295 150  510 150 880
140         6091 260  790 260   0
142 -2.09565e+06 340    0 340 510
143     -23737.8 340    0 340 510
144      -929214 150  510 150 880
145   1.6275e+06 260  790 260   0
146      18435.1 260  790 260   0
148     -13914.4 340    0 340 510
149      -935133 150  510 150 880
150      10806.1 260  790 260   0
152     -4090.71 340    0 340 510
153      -941051 150  510 150 880
154      3176.89 260  790 260   0
156     -19985.7 340    0 340 510
157      -946970 150  510 150 880
158      15521.1 260  790 260   0
160     -10162.1 340    0 340 510
161      -952888 150  510 150 880
162      7892.01 260  790 260   0
164      -338.35 340    0 340 510
165      -973558 160  490 160 880
166      262.766 260  790 260   0
168     -16233.5 340    0 340 510
169      -979567 160  490 160 880
170      12607.1 260  790 260   0
172     -6409.79 340    0 340 510
173      -985577 160  490 160 880
174      4977.91 260  790 260   0
176     -22304.7 340    0 340 510
177      -991587 160  490 160 880
178        17322 260  790 260   0
180     -12481.2 340    0 340 510
181      -997596 160  490 160 880
182      9693.01 260  790 260   0
184     -2657.44 340    0 340 510
185 -1.00361e+06 160  490 160 880
186      2063.79 260  790 260   0
188     -18552.5 340    0 340 510
189 -1.00962e+06 160  490 160 880
190        14408 260  790 260   0
192     -8728.87 340    0 340 510
193 -1.01562e+06 160  490 160 880
194      6778.93 260  790 260   0
196     -24623.6 340    0 340 510
197 -1.02163e+06 160  490 160 880
198      19122.9 260  790 260   0
200     -14800.2 340    0 340 510
201  -1.0437e+06 170  470 170 880
202        11494 260  790 260   0
204     -4976.52 340    0 340 510
205  -1.0498e+06 170  470 170 880
206      3864.82 260  790 260   0
208     -20871.5 340    0 340 510
209 -1.05591e+06 170  470 170 880
210        16209 260  790 260   0
212     -11047.9 340    0 340 510
213 -1.06201e+06 170  470 170 880
214      8579.94 260  790 260   0
216     -1224.16 340    0 340 510
217 -1.06812e+06 170  470 170 880
218      950.698 260  790 260   0
220     -17119.2 340    0 340 510
221 -1.07422e+06 170  470 170 880
222        13295 260  790 260   0
224      -7295.6 340    0 340 510
225 -1.08032e+06 170  470 170 880
226      5665.84 260  790 260   0
228     -23190.4 340    0 340 510
229 -1.10367e+06 180  450 180 880
230      18009.9 260  790 260   0
232       -13367 340    0 340 510
233 -1.10987e+06 180  450 180 880
234      10380.9 260  790 260   0
236     -3543.25 340    0 340 510
237 -1.11607e+06 180  450 180 880
238      2751.72 260  790 260   0
240     -19438.2 340    0 340 510
241 -1.12227e+06 180  450 180 880
242      15095.9 260  790 260   0
244     -9614.67 340    0 340 510
245 -1.12847e+06 180  450 180 880
246      7466.85 260  790 260   0
248 -2.09562e+06 340    0 340 510
249     -25509.3 340    0 340 510
250 -1.13467e+06 180  450 180 880
251  1.62748e+06 260  790 260   0
252      19810.8 260  790 260   0
254       -15686 340    0 340 510
255 -1.14087e+06 180  450 180 880
256      12181.9 260  790 260   0
258     -5862.33 340    0 340 510
259 -1.14707e+06 180  450 180 880
260      4552.75 260  790 260   0
262     -21757.2 340    0 340 510
263 -1.17187e+06 190  430 190 880
264      16896.9 260  790 260   0
266     -11933.7 340    0 340 510
267 -1.17818e+06 190  430 190 880
268      9267.86 260  790 260   0
270     -2109.98 340    0 340 510
271 -1.18448e+06 190  430 190 880
272      1638.63 260  790 260   0
274       -18005 340    0 340 510
275 -1.19078e+06 190  430 190 880
276      13982.9 260  790 260   0
278     -8181.41 340    0 340 510
279 -1.19708e+06 190  430 190 880
280      6353.77 260  790 260   0
282     -24076.2 340    0 340 510
283 -1.20338e+06 190  430 190 880
284      18697.8 260  790 260   0
286     -14252.8 340    0 340 510
287 -1.20968e+06 190  430 190 880
288      11068.8 260  790 260   0
290     -4429.06 340    0 340 510
291 -1.23591e+06 200  410 200 880
292      3439.66 260  790 260   0
294       -20324 340    0 340 510
295 -1.24232e+06 200  410 200 880
296      15783.8 260  790 260   0
298     -10500.5 340    0 340 510
299 -1.24872e+06 200  410 200 880
300      8154.78 260  790 260   0
302     -676.701 340    0 340 510
303 -1.25512e+06 200  410 200 880
304      525.533 260  790 260   0
306     -16571.8 340    0 340 510
307 -1.26153e+06 200  410 200 880
308      12869.8 260  790 260   0
310     -6748.14 340    0 340 510
311 -1.26793e+06 200  410 200 880
312      5240.68 260  790 260   0
314       -22643 340    0 340 510
315 -1.27433e+06 200  410 200 880
316      17584.8 260  790 260   0
318     -12819.5 340    0 340 510
319 -1.30208e+06 210  390 210 880
320      9955.78 260  790 260   0
322     -2995.79 340    0 340 510
323 -1.30859e+06 210  390 210 880
324      2326.56 260  790 260   0
326     -18890.8 340    0 340 510
327  -1.3151e+06 210  390 210 880
328      14670.8 260  790 260   0
330     -9067.21 340    0 340 510
331 -1.32161e+06 210  390 210 880
332      7041.69 260  790 260   0
334     -24961.9 340    0 340 510
335 -1.32812e+06 210  390 210 880
336      19385.7 260  790 260   0
338     -15138.6 340    0 340 510
339 -1.33464e+06 210  390 210 880
340      11756.8 260  790 260   0
342     -5314.87 340    0 340 510
343 -1.36388e+06 220  370 220 880
344      4127.58 260  790 260   0
346     -21209.8 340    0 340 510
347  -1.3705e+06 220  370 220 880
348      16471.7 260  790 260   0
350     -11386.3 340    0 340 510
351 -1.37712e+06 220  370 220 880
352       8842.7 260  790 260   0
354     -1562.51 340    0 340 510
355 -1.38374e+06 220  370 220 880
356      1213.46 260  790 260   0
358     -17457.6 340    0 340 510
359 -1.39036e+06 220  370 220 880
360      13557.7 260  790 260   0
362     -7633.95 340    0 340 510
363 -1.39698e+06 220  370 220 880
364       5928.6 260  790 260   0
366     -23528.7 340    0 340 510
367  -1.4036e+06 220  370 220 880
368      18272.7 260  790 260   0
370     -13705.3 340    0 340 510
371 -1.43454e+06 230  350 230 880
372      10643.7 260  790 260   0
374      -3881.6 340    0 340 510
375 -1.44127e+06 230  350 230 880
376      3014.49 260  790 260   0
378     -19776.6 340    0 340 510
379 -1.44801e+06 230  350 230 880
380      15358.7 260  790 260   0
382     -9953.02 340    0 340 510
383 -1.45474e+06 230  350 230 880
384      7729.62 260  790 260   0
386     -129.238 340    0 340 510
387 -1.46148e+06 230  350 230 880
388      100.368 260  790 260   0
390     -16024.4 340    0 340 510
391 -1.46821e+06 230  350 230 880
392      12444.7 260  790 260   0
394     -6200.68 340    0 340 510
395 -1.50082e+06 240  330 240 880
396      4815.51 260  790 260   0
398     -22095.6 340    0 340 510
399 -1.50768e+06 240  330 240 880
400      17159.6 260  790 260   0
402     -12272.1 340    0 340 510
403 -1.51453e+06 240  330 240 880
404      9530.62 260  790 260   0
406     -2448.33 340    0 340 510
407 -1.52138e+06 240  330 240 880
408       1901.4 260  790 260   0
410     -18343.4 340    0 340 510
411 -1.52823e+06 240  330 240 880
412      14245.6 260  790 260   0
414     -8519.76 340    0 340 510
415  -1.5625e+06 250  310 250 880
416      6616.53 260  790 260   0
418     -24414.5 340    0 340 510
419 -1.56948e+06 250  310 250 880
420      18960.6 260  790 260   0
422     -14591.1 340    0 340 510
423 -1.57645e+06 250  310 250 880
424      11331.6 260  790 260   0
426     -4767.41 340    0 340 510
427 -1.58343e+06 250  310 250 880
428      3702.42 260  790 260   0
430     -20662.4 340    0 340 510
431  -1.5904e+06 250  310 250 880
432      16046.6 260  790 260   0
434     -10838.8 340    0 340 510
435 -1.62642e+06 260  290 260 880
436      8417.54 260  790 260   0
438     -1015.05 340    0 340 510
439 -1.63352e+06 260  290 260 880
440      788.299 260  790 260   0
442     -16910.1 340    0 340 510
443 -1.64062e+06 260  290 260 880
444      13132.6 260  790 260   0
446     -7086.49 340    0 340 510
447 -1.64773e+06 260  290 260 880
448      5503.44 260  790 260   0
450     -22981.3 340    0 340 510
451 -1.65483e+06 260  290 260 880
452      17847.5 260  790 260   0
454     -13157.9 340    0 340 510
455 -1.69271e+06 270  270 270 880
456      10218.5 260  790 260   0
458     -3334.14 340    0 340 510
459 -1.69994e+06 270  270 270 880
