# Pulseq sequence file
# Created by MATLAB mr toolbox

[VERSION]
major 1
minor 3
revision 1

[DEFINITIONS]
FOV 0.256 0.256 0.256 
Name 3D_radial_stackOfStars 
TotalDuration 2.25412 

# Format of blocks:
#  #  D RF  GX  GY  GZ ADC EXT
[BLOCKS]
   1  0  1   2   0   1  0  0
   2  1  0   4   0   3  0  0
   3  0  2   6   7   5  0  0
   4  1  0   9  10   8  0  0
   5  0  3  12  13  11  0  0
   6  1  0   4  15  14  0  0
   7  0  4  17  18  16  0  0
   8  1  0  20  21  19  0  0
   9  0  5  23  24  22  0  0
  10  1  0  26  27  25  0  0
  11  0  6   2   0   1  0  0
  12  1  0   4   0   3  1  0
  13  0  7   6   7   5  0  0
  14  1  0   9  10   8  2  0
  15  0  8  12  13  11  0  0
  16  1  0   4  15  14  3  0
  17  0  9  17  18  16  0  0
  18  1  0  20  21  19  4  0
  19  0 10  23  24  22  0  0
  20  1  0  26  27  25  5  0
  21  0  6   2  29  28  0  0
  22  1  0   4  31  30  1  0
  23  0 11  33  34  32  0  0
  24  1  0  36  37  35  6  0
  25  0 12  39  40  38  0  0
  26  1  0  42  43  41  7  0
  27  0 13  45  46  44  0  0
  28  1  0  48  49  47  8  0
  29  0 14  51  52  50  0  0
  30  1  0  54  55  53  9  0
  31  0  1  12  57  56  0  0
  32  1  0   4  59  58 10  0
  33  0 15  61  62  60  0  0
  34  1  0  64  65  63 11  0
  35  0 16  67  68  66  0  0
  36  1  0  26  70  69 12  0
  37  0 13   2  72  71  0  0
  38  1  0   4  74  73  8  0
  39  0 17  76  77  75  0  0
  40  1  0  79  80  78 13  0
  41  0  5  12  82  81  0  0
  42  1  0   4  84  83 14  0
  43  0 18  86  87  85  0  0
  44  1  0  20  89  88 15  0
  45  0 19  23  91  90  0  0
  46  1  0  54  93  92 16  0
  47  0  9   2  95  94  0  0
  48  1  0   4  97  96  4  0
  49  0 20  99 100  98  0  0
  50  1  0  36 102 101 17  0
  51  0 10  39 104 103  0  0
  52  1  0  42 106 105  5  0
  53  0 18 108 109 107  0  0
  54  1  0  48 111 110 15  0
  55  0 21   6 113 112  0  0
  56  1  0   9 115 114 18  0
  57  0  4  12 117 116  0  0
  58  1  0   4 119 118 19  0
  59  0 22 121 122 120  0  0
  60  1  0 124 125 123 20  0
  61  0 14  67 127 126  0  0
  62  1  0  26 129 128  9  0
  63  0 15   2 131 130  0  0
  64  1  0   4 133 132 11  0
  65  0 23  33 135 134  0  0
  66  1  0  79 137 136 21  0
  67  0  2  39 139 138  0  0
  68  1  0  42 141 140 22  0
  69  0 22  45 143 142  0  0
  70  1  0 145 146 144 20  0
  71  0 17  51 148 147  0  0
  72  1  0  54 150 149 13  0
  73  0 11  12 152 151  0  0
  74  1  0   4 154 153  6  0
  75  0 24  61 156 155  0  0
  76  1  0  64 158 157 23  0
  77  0  7  67 160 159  0  0
  78  1  0  42 162 161  2  0
  79  0 20   2 164 163  0  0
  80  1  0   4 166 165 17  0
  81  0 20  76 168 167  0  0
  82  1  0   9 170 169 17  0
  83  0  7  12 172 171  0  0
  84  1  0   4 174 173  2  0
  85  0 24  17 176 175  0  0
  86  1  0  20 178 177 23  0
  87  0 11  23 180 179  0  0
  88  1  0  26 182 181  6  0
  89  0 17   2 184 183  0  0
  90  1  0   4 186 185 13  0
  91  0 22  33 188 187  0  0
  92  1  0  36 190 189 20  0
  93  0  2  39 192 191  0  0
  94  1  0  42 194 193 22  0
  95  0 23 108 196 195  0  0
  96  1  0  48 198 197 21  0
  97  0 15  51 200 199  0  0
  98  1  0   9 202 201 11  0
  99  0 14  12 204 203  0  0
 100  1  0   4 206 205  9  0
 101  0 22 121 208 207  0  0
 102  1  0 124 210 209 20  0
 103  0  4  67 212 211  0  0
 104  1  0  26 214 213 19  0
 105  0 21   2 216 215  0  0
 106  1  0   4 218 217 18  0
 107  0 18  76 220 219  0  0
 108  1  0  79 222 221 15  0
 109  0 10  39 224 223  0  0
 110  1  0  42 226 225  5  0
 111  0 20  86 228 227  0  0
 112  1  0 145 230 229 17  0
 113  0  9  51 232 231  0  0
 114  1  0  54 234 233  4  0
 115  0 19  12 236 235  0  0
 116  1  0   4 238 237 16  0
 117  0 18  99 240 239  0  0
 118  1  0  64 242 241 15  0
 119  0  5  39 244 243  0  0
 120  1  0  42 246 245 14  0
 121  0 17 248 249 247  0  0
 122  1  0 251 252 250 13  0
 123  0 13   6 254 253  0  0
 124  1  0   9 256 255  8  0
 125  0 16  12 258 257  0  0
 126  1  0   4 260 259 12  0
 127  0 15  17 262 261  0  0
 128  1  0 124 264 263 11  0
 129  0  1  23 266 265  0  0
 130  1  0  26 268 267 10  0
 131  0 14   2 270 269  0  0
 132  1  0   4 272 271  9  0
 133  0 13  33 274 273  0  0
 134  1  0  36 276 275  8  0
 135  0 12  39 278 277  0  0
 136  1  0  42 280 279  7  0
 137  0 11  45 282 281  0  0
 138  1  0 145 284 283  6  0
 139  0  6  51 286 285  0  0
 140  1  0  54 288 287  1  0
 141  0 10  12 290 289  0  0
 142  1  0   4 292 291  5  0
 143  0  9  61 294 293  0  0
 144  1  0  64 296 295  4  0
 145  0  8  67 298 297  0  0
 146  1  0  26 300 299  3  0
 147  0  7   2 302 301  0  0
 148  1  0   4 304 303  2  0
 149  0  6  76 306 305  0  0
 150  1  0  79 308 307  1  0
 151  0  5  12 310 309  0  0
 152  1  0   4 312 311 14  0
 153  0  4  17 314 313  0  0
 154  1  0  20 316 315 19  0
 155  0  3  23 318 317  0  0
 156  1  0  54 320 319 24  0
 157  0  2   2 322 321  0  0
 158  1  0   4 324 323 22  0
 159  0  1  99 326 325  0  0
 160  1  0  36 328 327 10  0
 161  0  1  39 330 329  0  0
 162  1  0  42 332 331 10  0
 163  0  2 108 334 333  0  0
 164  1  0  48 336 335 22  0
 165  0  3   6 338 337  0  0
 166  1  0   9 340 339 24  0
 167  0  4  12 342 341  0  0
 168  1  0   4 344 343 19  0
 169  0  5 121 346 345  0  0
 170  1  0 124 348 347 14  0
 171  0  6  67 350 349  0  0
 172  1  0  26 352 351  1  0
 173  0  7   2 354 353  0  0
 174  1  0   4 356 355  2  0
 175  0  8  33 358 357  0  0
 176  1  0  79 360 359  3  0
 177  0  9  39 362 361  0  0
 178  1  0  42 364 363  4  0
 179  0 10  86 366 365  0  0
 180  1  0 145 368 367  5  0
 181  0  6  51 370 369  0  0
 182  1  0  54 372 371  1  0
 183  0 11  12 374 373  0  0
 184  1  0   4 376 375  6  0
 185  0 12  61 378 377  0  0
 186  1  0  64 380 379  7  0
 187  0 13  67 382 381  0  0
 188  1  0  42 384 383  8  0
 189  0 14   2 386 385  0  0
 190  1  0   4 388 387  9  0
 191  0  1   6 390 389  0  0
 192  1  0   9 392 391 10  0
 193  0 15  12 394 393  0  0
 194  1  0   4 396 395 11  0
 195  0 16  17 398 397  0  0
 196  1  0  20 400 399 12  0
 197  0 13  23 402 401  0  0
 198  1  0  26 404 403  8  0
 199  0 17   2 406 405  0  0
 200  1  0   4 408 407 13  0
 201  0  5  33 410 409  0  0
 202  1  0  36 412 411 14  0
 203  0 18  39 414 413  0  0
 204  1  0  42 416 415 15  0
 205  0 19  45 418 417  0  0
 206  1  0  48 420 419 16  0
 207  0  9  51 422 421  0  0
 208  1  0   9 424 423  4  0
 209  0 20  12 426 425  0  0
 210  1  0   4 428 427 17  0
 211  0 10  61 430 429  0  0
 212  1  0  64 432 431  5  0
 213  0 18  67 434 433  0  0
 214  1  0  26 436 435 15  0
 215  0 21   2 438 437  0  0
 216  1  0   4 440 439 18  0
 217  0  4  76 442 441  0  0
 218  1  0  79 444 443 19  0
 219  0 22  12 446 445  0  0
 220  1  0  42 448 447 20  0
 221  0 14  86 450 449  0  0
 222  1  0  20 452 451  9  0
 223  0 15  23 454 453  0  0
 224  1  0  54 456 455 11  0
 225  0 23  12 458 457  0  0
 226  1  0   4 460 459 21  0
 227  0  2  99 462 461  0  0
 228  1  0  36 464 463 22  0
 229  0 22  39 466 465  0  0
 230  1  0  42 468 467 20  0
 231  0 17 248 470 469  0  0
 232  1  0  48 472 471 13  0
 233  0 11   6 474 473  0  0
 234  1  0   9 476 475  6  0
 235  0 24  12 478 477  0  0
 236  1  0   4 480 479 23  0
 237  0  7 121 482 481  0  0
 238  1  0 124 484 483  2  0
 239  0 20  23 486 485  0  0
 240  1  0  26 488 487 17  0
 241  0 20   2 490 489  0  0
 242  1  0   4 492 491 17  0
 243  0  7  33 494 493  0  0
 244  1  0  79 496 495  2  0
 245  0 24  39 498 497  0  0
 246  1  0  42 500 499 23  0
 247  0 11  45 502 501  0  0
 248  1  0 145 504 503  6  0
 249  0 17  51 506 505  0  0
 250  1  0  54 508 507 13  0
 251  0 22  12 510 509  0  0
 252  1  0   4 512 511 20  0
 253  0  2  61 514 513  0  0
 254  1  0  64 516 515 22  0
 255  0 23  67 518 517  0  0
 256  1  0  26 520 519 21  0
 257  0 15   2 522 521  0  0
 258  1  0   4 524 523 11  0
 259  0 14  76 526 525  0  0
 260  1  0  79 528 527  9  0
 261  0 22  12 530 529  0  0
 262  1  0   4 532 531 20  0
 263  0  4  17 534 533  0  0
 264  1  0  20 536 535 19  0
 265  0 21  23 538 537  0  0
 266  1  0  54 540 539 18  0
 267  0 18   2 542 541  0  0
 268  1  0   4 544 543 15  0
 269  0 10  99 546 545  0  0
 270  1  0  36 548 547  5  0
 271  0 20  39 550 549  0  0
 272  1  0  42 552 551 17  0
 273  0  9 108 554 553  0  0
 274  1  0  48 556 555  4  0
 275  0 19   6 558 557  0  0
 276  1  0   9 560 559 16  0
 277  0 18  12 562 561  0  0
 278  1  0   4 564 563 15  0
 279  0  5 121 566 565  0  0
 280  1  0 124 568 567 14  0
 281  0 17  67 570 569  0  0
 282  1  0  26 572 571 13  0
 283  0 13   2 574 573  0  0
 284  1  0   4 576 575  8  0
 285  0 16  76 578 577  0  0
 286  1  0  79 580 579 12  0
 287  0 15  39 582 581  0  0
 288  1  0  42 584 583 11  0
 289  0  1  86 586 585  0  0
 290  1  0 145 588 587 10  0
 291  0 14  51 590 589  0  0
 292  1  0  54 592 591  9  0
 293  0 13  12 594 593  0  0
 294  1  0   4 596 595  8  0
 295  0 12  99 598 597  0  0
 296  1  0  64 600 599  7  0
 297  0 11  67 602 601  0  0
 298  1  0  42 604 603  6  0
 299  0  6 248 606 605  0  0
 300  1  0 251 608 607  1  0
 301  0 10   6 610 609  0  0
 302  1  0   9 612 611  5  0
 303  0  9  12 614 613  0  0
 304  1  0   4 616 615  4  0
 305  0  8  17 618 617  0  0
 306  1  0 124 620 619  3  0
 307  0  7  23 622 621  0  0
 308  1  0  26 624 623  2  0
 309  0  6   2 626 625  0  0
 310  1  0   4 628 627  1  0
 311  0  5  33 630 629  0  0
 312  1  0  36 632 631 14  0
 313  0  4  39 634 633  0  0
 314  1  0  42 636 635 19  0
 315  0  3  45 638 637  0  0
 316  1  0 145 640 639 24  0
 317  0  2  51 642 641  0  0
 318  1  0  54 644 643 22  0
 319  0  1  12 646 645  0  0
 320  1  0   4 648 647 10  0
 321  0  1  61 650 649  0  0
 322  1  0  64 652 651 10  0
 323  0  2  67 654 653  0  0
 324  1  0  26 656 655 22  0
 325  0  3   2 658 657  0  0
 326  1  0   4 660 659 24  0
 327  0  4  76 662 661  0  0
 328  1  0  79 664 663 19  0
 329  0  5  12 666 665  0  0
 330  1  0   4 668 667 14  0
 331  0  6  86 670 669  0  0
 332  1  0  20 672 671  1  0
 333  0  7  23 674 673  0  0
 334  1  0  54 676 675  2  0
 335  0  8   2 678 677  0  0
 336  1  0   4 680 679  3  0
[RF]
1      85.1875 1 2 100 0 2.04204
2      85.1875 1 2 100 0 4.08407
3      85.1875 1 2 100 0 1.88496
4      85.1875 1 2 100 0 1.72788
5      85.1875 1 2 100 0 3.61283
6      85.1875 1 2 100 0 1.25664
7      85.1875 1 2 100 0 0.942478
8      85.1875 1 2 100 0 2.67035
9      85.1875 1 2 100 0 0.15708
10      85.1875 1 2 100 0 5.96903
11      85.1875 1 2 100 0 4.86947
12      85.1875 1 2 100 0 4.24115
13      85.1875 1 2 100 0 5.65487
14      85.1875 1 2 100 0 2.82743
15      85.1875 1 2 100 0 3.29867
16      85.1875 1 2 100 0 0.314159
17      85.1875 1 2 100 0 0.471239
18      85.1875 1 2 100 0 2.51327
19      85.1875 1 2 100 0 3.45575
20      85.1875 1 2 100 0 5.18363
21      85.1875 1 2 100 0 1.09956
22      85.1875 1 2 100 0 4.39823
23      85.1875 1 2 100 0 5.81195
24      85.1875 1 2 100 0 5.02655

# Format of arbitrary gradients:
# id amplitude shape_id delay
# ..      Hz/m     ....    us
[GRADIENTS]
1  1.40001e+06 3 90
5  1.38916e+06 4 90
11  1.34106e+06 5 90
16   1.3305e+06 6 90
22  1.31994e+06 7 90
28  1.27493e+06 8 90
32  1.26465e+06 9 90
38  1.25437e+06 10 90
44  1.21219e+06 11 90
50  1.20217e+06 12 90
56  1.19216e+06 13 90
60  1.18214e+06 14 90
66  1.14282e+06 15 90
71  1.13306e+06 16 90
75  1.12329e+06 17 90
81  1.11353e+06 18 90
85  1.07684e+06 19 90
90  1.06731e+06 20 90
94  1.05778e+06 21 90
98  1.04826e+06 22 90
103    1.014e+06 23 90
107   1.0047e+06 24 90
112       995396 25 90
116       986096 26 90
120       954079 27 90
126       944995 28 90
130       935910 29 90
134       926826 30 90
138       917742 31 90
142       888006 32 90
147       879128 33 90
151       870250 34 90
155       861373 35 90
159       852495 36 90
163       824870 37 90
167       816189 38 90
171       807509 39 90
175       798828 40 90
179       790148 41 90
183       764479 42 90
187       755987 43 90
191       747495 44 90
195       739003 45 90
199       730511 46 90
203       722019 47 90
207       698346 48 90
211       690035 49 90
215       681724 50 90
219       673413 51 90
223       665101 52 90
227       656790 53 90
231       634969 54 90
235       626831 55 90
239       618693 56 90
243       610555 57 90
247       602417 58 90
253       594279 59 90
257       574179 60 90
261       566207 61 90
265       558235 62 90
269       550263 63 90
273       542291 64 90
277       534319 65 90
281       526347 66 90
285       508008 67 90
289       500195 68 90
293       492383 69 90
297       484570 70 90
301       476758 71 90
305       468945 72 90
309       461133 73 90
313       444432 74 90
317       436772 75 90
321       429113 76 90
325       421454 77 90
329       413794 78 90
333       406135 79 90
337       398476 80 90
341       390816 81 90
345       375789 82 90
349       368277 83 90
353       360765 84 90
357       353253 85 90
361       345741 86 90
365       338229 87 90
369       330717 88 90
373       317106 89 90
377       309736 90 90
381       302366 91 90
385       294996 92 90
389       287625 93 90
393       280255 94 90
397       272885 95 90
401       265514 96 90
405       253364 97 90
409       246130 98 90
413       238896 99 90
417       231662 100 90
421       224429 101 90
425       217195 102 90
429       209961 103 90
433       202727 104 90
437       195493 105 90
441       184837 106 90
445       177734 107 90
449       170632 108 90
453       163530 109 90
457       156428 110 90
461       149325 111 90
465       142223 112 90
469       135121 113 90
473       125732 114 90
477       118757 115 90
481       111782 116 90
485       104806 117 90
489      97830.6 118 90
493      90855.2 119 90
497      83879.7 120 90
501      76904.3 121 90
505      69928.9 122 90
509        61849 123 90
513      54995.9 124 90
517      48142.8 125 90
521      41289.7 126 90
525      34436.7 127 90
529      27583.6 128 90
533      20730.5 129 90
537      19531.3 130 90
541      19531.3 131 90
545      19531.3 132 90
549      19531.3 133 90
553      19531.3 134 90
557      20387.9 135 90
561        27241 136 90
565        34094 137 90
569      40947.1 138 90
573      47800.2 139 90
577      54653.2 140 90
581      61506.3 141 90
585      69580.1 142 90
589      76555.5 143 90
593        83531 144 90
597      90506.4 145 90
601      97481.9 146 90
605       104457 147 90
609       111433 148 90
613       118408 149 90
617       125384 150 90
621       134766 151 90
625       141868 152 90
629       148970 153 90
633       156072 154 90
637       163175 155 90
641       170277 156 90
645       177379 157 90
649       184482 158 90
653       191584 159 90
657       202365 160 90
661       209599 161 90
665       216833 162 90
669       224067 163 90
673       231301 164 90
677       238534 165 90
681       245768 166 90
685       253002 167 90
689       265146 168 90
693       272516 169 90
697       279886 170 90
701       287257 171 90
705       294627 172 90
709       301997 173 90
713       309368 174 90
717       316738 175 90
721       330341 176 90
725       337853 177 90
729       345365 178 90
733       352877 179 90
737       360389 180 90
741       367901 181 90
745       375413 182 90
749       382925 183 90
753       398093 184 90
757       405752 185 90
761       413411 186 90
765       421071 187 90
769       428730 188 90
773       436389 189 90
777       444049 190 90
781       460742 191 90
785       468555 192 90
789       476367 193 90
793       484180 194 90
797       491992 195 90
801       499805 196 90
805       507617 197 90
809       525949 198 90
813       533921 199 90
817       541893 200 90
821       549864 201 90
825       557836 202 90
829       565808 203 90
833       573780 204 90
837       593872 205 90
841       602010 206 90
845       610148 207 90
849       618286 208 90
853       626424 209 90
857       634562 210 90
861       656375 211 90
865       664686 212 90
869       672997 213 90
873       681308 214 90
877       689619 215 90
881       697931 216 90
885       721595 217 90
889       730087 218 90
893       738578 219 90
897       747070 220 90
901       755562 221 90
905       764054 222 90
909       789714 223 90
913       798394 224 90
917       807075 225 90
921       815755 226 90
925       824436 227 90
929       852051 228 90
933       860929 229 90
937       869806 230 90
941       878684 231 90
945       887562 232 90
949       917287 233 90
953       926372 234 90
957       935456 235 90
961       944540 236 90
965       953625 237 90
969       985631 238 90
973       994931 239 90
977  1.00423e+06 240 90
981  1.01353e+06 241 90
985  1.04778e+06 242 90
989  1.05731e+06 243 90
993  1.06683e+06 244 90
997  1.07636e+06 245 90
1001  1.11304e+06 246 90
1005   1.1228e+06 247 90
1009  1.13257e+06 248 90
1013  1.14233e+06 249 90
1017  1.18164e+06 250 90
1021  1.19166e+06 251 90
1025  1.20167e+06 252 90
1029  1.21169e+06 253 90
1033  1.25385e+06 254 90
1037  1.26413e+06 255 90
1041  1.27441e+06 256 90
1045  1.31942e+06 257 90
1049  1.32997e+06 258 90

# Format of trapezoid gradients:
# id amplitude rise flat fall delay
# ..      Hz/m   us   us   us    us
[TRAP]
 2 -2.09291e+06 340    0 340 1260
 3      -724638 120  570 120 1050
 4   1.6276e+06 260  790 260   0
 6 -2.09285e+06 340    0 340 1260
 7     -15873.3 340    0 340 1260
 8      -730299 120  570 120 1050
 9  1.62756e+06 260  790 260   0
10      12344.3 260  790 260   0
12  -2.0929e+06 340    0 340 1260
13     -6063.12 340    0 340 1260
14      -735960 120  570 120 1050
15      4715.15 260  790 260   0
17 -2.09279e+06 340    0 340 1260
18     -21936.2 340    0 340 1260
19      -741621 120  570 120 1050
20  1.62751e+06 260  790 260   0
21      17059.3 260  790 260   0
23 -2.09287e+06 340    0 340 1260
24     -12126.2 340    0 340 1260
25      -747283 120  570 120 1050
26  1.62758e+06 260  790 260   0
27      9430.25 260  790 260   0
29     -2315.91 340    0 340 1260
30      -752944 120  570 120 1050
31      1801.03 260  790 260   0
33 -2.09283e+06 340    0 340 1260
34     -18189.2 340    0 340 1260
35      -758605 120  570 120 1050
36  1.62754e+06 260  790 260   0
37      14145.3 260  790 260   0
39 -2.09289e+06 340    0 340 1260
40     -8379.02 340    0 340 1260
41      -764266 120  570 120 1050
42  1.62759e+06 260  790 260   0
43      6516.16 260  790 260   0
45 -2.09277e+06 340    0 340 1260
46       -24252 340    0 340 1260
47      -781250 130  550 130 1050
48  1.62749e+06 260  790 260   0
49      18860.2 260  790 260   0
51 -2.09286e+06 340    0 340 1260
52     -14442.1 340    0 340 1260
53      -786994 130  550 130 1050
54  1.62757e+06 260  790 260   0
55      11231.2 260  790 260   0
57     -4631.82 340    0 340 1260
58      -792739 130  550 130 1050
59      3602.05 260  790 260   0
61 -2.09281e+06 340    0 340 1260
62       -20505 340    0 340 1260
63      -798483 130  550 130 1050
64  1.62753e+06 260  790 260   0
65      15946.2 260  790 260   0
67 -2.09288e+06 340    0 340 1260
68     -10694.9 340    0 340 1260
69      -804228 130  550 130 1050
70      8317.17 260  790 260   0
72     -884.599 340    0 340 1260
73      -809972 130  550 130 1050
74      687.932 260  790 260   0
76 -2.09284e+06 340    0 340 1260
77     -16757.9 340    0 340 1260
78      -815717 130  550 130 1050
79  1.62755e+06 260  790 260   0
80      13032.2 260  790 260   0
82     -6947.72 340    0 340 1260
83      -821461 130  550 130 1050
84      5403.07 260  790 260   0
86 -2.09278e+06 340    0 340 1260
87     -22820.8 340    0 340 1260
88      -827206 130  550 130 1050
89      17747.2 260  790 260   0
91     -13010.8 340    0 340 1260
92      -845382 140  530 140 1050
93      10118.2 260  790 260   0
95     -3200.51 340    0 340 1260
96      -851213 140  530 140 1050
97      2488.96 260  790 260   0
99 -2.09282e+06 340    0 340 1260
100     -19073.7 340    0 340 1260
101      -857043 140  530 140 1050
102      14833.2 260  790 260   0
104     -9263.61 340    0 340 1260
105      -862873 140  530 140 1050
106      7204.09 260  790 260   0
108 -2.09276e+06 340    0 340 1260
109     -25136.5 340    0 340 1260
110      -868703 140  530 140 1050
111      19548.1 260  790 260   0
113     -15326.6 340    0 340 1260
114      -874534 140  530 140 1050
115      11919.2 260  790 260   0
117     -5516.41 340    0 340 1260
118      -880364 140  530 140 1050
119      4289.98 260  790 260   0
121  -2.0928e+06 340    0 340 1260
122     -21389.5 340    0 340 1260
123      -886194 140  530 140 1050
124  1.62752e+06 260  790 260   0
125      16634.1 260  790 260   0
127     -11579.5 340    0 340 1260
128      -892024 140  530 140 1050
129      9005.09 260  790 260   0
131      -1769.2 340    0 340 1260
132      -911458 150  510 150 1050
133      1375.86 260  790 260   0
135     -17642.5 340    0 340 1260
136      -917377 150  510 150 1050
137      13720.1 260  790 260   0
139     -7832.31 340    0 340 1260
140      -923295 150  510 150 1050
141         6091 260  790 260   0
143     -23705.3 340    0 340 1260
144      -929214 150  510 150 1050
145   1.6275e+06 260  790 260   0
146      18435.1 260  790 260   0
148     -13895.4 340    0 340 1260
149      -935133 150  510 150 1050
150      10806.1 260  790 260   0
152     -4085.11 340    0 340 1260
153      -941051 150  510 150 1050
154      3176.89 260  790 260   0
156     -19958.3 340    0 340 1260
157      -946970 150  510 150 1050
158      15521.1 260  790 260   0
160     -10148.2 340    0 340 1260
161      -952888 150  510 150 1050
162      7892.01 260  790 260   0
164     -337.887 340    0 340 1260
165      -973558 160  490 160 1050
166      262.766 260  790 260   0
168     -16211.2 340    0 340 1260
169      -979567 160  490 160 1050
170      12607.1 260  790 260   0
172     -6401.01 340    0 340 1260
173      -985577 160  490 160 1050
174      4977.91 260  790 260   0
176     -22274.1 340    0 340 1260
177      -991587 160  490 160 1050
178        17322 260  790 260   0
180     -12464.1 340    0 340 1260
181      -997596 160  490 160 1050
182      9693.01 260  790 260   0
184      -2653.8 340    0 340 1260
185 -1.00361e+06 160  490 160 1050
186      2063.79 260  790 260   0
188       -18527 340    0 340 1260
189 -1.00962e+06 160  490 160 1050
190        14408 260  790 260   0
192      -8716.9 340    0 340 1260
193 -1.01562e+06 160  490 160 1050
194      6778.93 260  790 260   0
196     -24589.8 340    0 340 1260
197 -1.02163e+06 160  490 160 1050
198      19122.9 260  790 260   0
200     -14779.9 340    0 340 1260
201  -1.0437e+06 170  470 170 1050
202        11494 260  790 260   0
204      -4969.7 340    0 340 1260
205  -1.0498e+06 170  470 170 1050
206      3864.82 260  790 260   0
208     -20842.8 340    0 340 1260
209 -1.05591e+06 170  470 170 1050
210        16209 260  790 260   0
212     -11032.8 340    0 340 1260
213 -1.06201e+06 170  470 170 1050
214      8579.94 260  790 260   0
216     -1222.49 340    0 340 1260
217 -1.06812e+06 170  470 170 1050
218      950.698 260  790 260   0
220     -17095.8 340    0 340 1260
221 -1.07422e+06 170  470 170 1050
222        13295 260  790 260   0
224      -7285.6 340    0 340 1260
225 -1.08032e+06 170  470 170 1050
226      5665.84 260  790 260   0
228     -23158.6 340    0 340 1260
229 -1.10367e+06 180  450 180 1050
230      18009.9 260  790 260   0
232     -13348.7 340    0 340 1260
233 -1.10987e+06 180  450 180 1050
234      10380.9 260  790 260   0
236     -3538.39 340    0 340 1260
237 -1.11607e+06 180  450 180 1050
238      2751.72 260  790 260   0
240     -19411.6 340    0 340 1260
241 -1.12227e+06 180  450 180 1050
242      15095.9 260  790 260   0
244     -9601.49 340    0 340 1260
245 -1.12847e+06 180  450 180 1050
246      7466.85 260  790 260   0
248 -2.09275e+06 340    0 340 1260
249     -25474.4 340    0 340 1260
250 -1.13467e+06 180  450 180 1050
251  1.62748e+06 260  790 260   0
252      19810.8 260  790 260   0
254     -15664.5 340    0 340 1260
255 -1.14087e+06 180  450 180 1050
256      12181.9 260  790 260   0
258      -5854.3 340    0 340 1260
259 -1.14707e+06 180  450 180 1050
260      4552.75 260  790 260   0
262     -21727.4 340    0 340 1260
263 -1.17187e+06 190  430 190 1050
264      16896.9 260  790 260   0
266     -11917.4 340    0 340 1260
267 -1.17818e+06 190  430 190 1050
268      9267.86 260  790 260   0
270     -2107.08 340    0 340 1260
271 -1.18448e+06 190  430 190 1050
272      1638.63 260  790 260   0
274     -17980.3 340    0 340 1260
275 -1.19078e+06 190  430 190 1050
276      13982.9 260  790 260   0
278      -8170.2 340    0 340 1260
279 -1.19708e+06 190  430 190 1050
280      6353.77 260  790 260   0
282     -24043.2 340    0 340 1260
283 -1.20338e+06 190  430 190 1050
284      18697.8 260  790 260   0
286     -14233.2 340    0 340 1260
287 -1.20968e+06 190  430 190 1050
288      11068.8 260  790 260   0
290     -4422.99 340    0 340 1260
291 -1.23591e+06 200  410 200 1050
292      3439.66 260  790 260   0
294     -20296.2 340    0 340 1260
295 -1.24232e+06 200  410 200 1050
296      15783.8 260  790 260   0
298     -10486.1 340    0 340 1260
299 -1.24872e+06 200  410 200 1050
300      8154.78 260  790 260   0
302     -675.774 340    0 340 1260
303 -1.25512e+06 200  410 200 1050
304      525.533 260  790 260   0
306     -16549.1 340    0 340 1260
307 -1.26153e+06 200  410 200 1050
308      12869.8 260  790 260   0
310     -6738.89 340    0 340 1260
311 -1.26793e+06 200  410 200 1050
312      5240.68 260  790 260   0
314       -22612 340    0 340 1260
315 -1.27433e+06 200  410 200 1050
316      17584.8 260  790 260   0
318       -12802 340    0 340 1260
319 -1.30208e+06 210  390 210 1050
320      9955.78 260  790 260   0
322     -2991.68 340    0 340 1260
323 -1.30859e+06 210  390 210 1050
324      2326.56 260  790 260   0
326     -18864.9 340    0 340 1260
327  -1.3151e+06 210  390 210 1050
328      14670.8 260  790 260   0
330     -9054.79 340    0 340 1260
331 -1.32161e+06 210  390 210 1050
332      7041.69 260  790 260   0
334     -24927.7 340    0 340 1260
335 -1.32812e+06 210  390 210 1050
336      19385.7 260  790 260   0
338     -15117.8 340    0 340 1260
339 -1.33464e+06 210  390 210 1050
340      11756.8 260  790 260   0
342     -5307.59 340    0 340 1260
343 -1.36388e+06 220  370 220 1050
344      4127.58 260  790 260   0
346     -21180.7 340    0 340 1260
347  -1.3705e+06 220  370 220 1050
348      16471.7 260  790 260   0
350     -11370.7 340    0 340 1260
351 -1.37712e+06 220  370 220 1050
352       8842.7 260  790 260   0
354     -1560.37 340    0 340 1260
355 -1.38374e+06 220  370 220 1050
356      1213.46 260  790 260   0
358     -17433.7 340    0 340 1260
359 -1.39036e+06 220  370 220 1050
360      13557.7 260  790 260   0
362     -7623.49 340    0 340 1260
363 -1.39698e+06 220  370 220 1050
364       5928.6 260  790 260   0
366     -23496.5 340    0 340 1260
367  -1.4036e+06 220  370 220 1050
368      18272.7 260  790 260   0
370     -13686.5 340    0 340 1260
371 -1.43454e+06 230  350 230 1050
372      10643.7 260  790 260   0
374     -3876.28 340    0 340 1260
375 -1.44127e+06 230  350 230 1050
376      3014.49 260  790 260   0
378     -19749.5 340    0 340 1260
379 -1.44801e+06 230  350 230 1050
380      15358.7 260  790 260   0
382     -9939.38 340    0 340 1260
383 -1.45474e+06 230  350 230 1050
384      7729.62 260  790 260   0
386     -129.061 340    0 340 1260
387 -1.46148e+06 230  350 230 1050
388      100.368 260  790 260   0
390     -16002.4 340    0 340 1260
391 -1.46821e+06 230  350 230 1050
392      12444.7 260  790 260   0
394     -6192.18 340    0 340 1260
395 -1.50082e+06 240  330 240 1050
396      4815.51 260  790 260   0
398     -22065.3 340    0 340 1260
399 -1.50768e+06 240  330 240 1050
400      17159.6 260  790 260   0
402     -12255.3 340    0 340 1260
403 -1.51453e+06 240  330 240 1050
404      9530.62 260  790 260   0
406     -2444.97 340    0 340 1260
407 -1.52138e+06 240  330 240 1050
408       1901.4 260  790 260   0
410     -18318.2 340    0 340 1260
411 -1.52823e+06 240  330 240 1050
412      14245.6 260  790 260   0
414     -8508.08 340    0 340 1260
415  -1.5625e+06 250  310 250 1050
416      6616.53 260  790 260   0
418       -24381 340    0 340 1260
419 -1.56948e+06 250  310 250 1050
420      18960.6 260  790 260   0
422     -14571.1 340    0 340 1260
423 -1.57645e+06 250  310 250 1050
424      11331.6 260  790 260   0
426     -4760.88 340    0 340 1260
427 -1.58343e+06 250  310 250 1050
428      3702.42 260  790 260   0
430       -20634 340    0 340 1260
431  -1.5904e+06 250  310 250 1050
432      16046.6 260  790 260   0
434       -10824 340    0 340 1260
435 -1.62642e+06 260  290 260 1050
436      8417.54 260  790 260   0
438     -1013.66 340    0 340 1260
439 -1.63352e+06 260  290 260 1050
440      788.299 260  790 260   0
442       -16887 340    0 340 1260
443 -1.64062e+06 260  290 260 1050
444      13132.6 260  790 260   0
446     -7076.78 340    0 340 1260
447 -1.64773e+06 260  290 260 1050
448      5503.44 260  790 260   0
450     -22949.8 340    0 340 1260
451 -1.65483e+06 260  290 260 1050
452      17847.5 260  790 260   0
454     -13139.8 340    0 340 1260
455 -1.69271e+06 270  270 270 1050
456      10218.5 260  790 260   0
458     -3329.57 340    0 340 1260
459 -1.69994e+06 270  270 270 1050
460      2589.33 260  790 260   0
462     -19202.8 340    0 340 1260
463 -1.70718e+06 270  270 270 1050
464      14933.5 260  790 260   0
466     -9392.67 340    0 340 1260
467 -1.71441e+06 270  270 270 1050
468      7304.46 260  790 260   0
470     -25265.6 340    0 340 1260
471 -1.72164e+06 270  270 270 1050
472      19648.4 260  790 260   0
474     -15455.7 340    0 340 1260
475  -1.7615e+06 280  250 280 1050
476      12019.5 260  790 260   0
478     -5645.47 340    0 340 1260
479 -1.76887e+06 280  250 280 1050
480      4390.35 260  790 260   0
482     -21518.6 340    0 340 1260
483 -1.77624e+06 280  250 280 1050
484      16734.5 260  790 260   0
486     -11708.6 340    0 340 1260
487 -1.78361e+06 280  250 280 1050
488      9105.46 260  790 260   0
490     -1898.26 340    0 340 1260
491 -1.82542e+06 290  230 290 1050
