# Pulseq sequence file
# Created by MATLAB mr toolbox

[VERSION]
major 1
minor 3
revision 1

[DEFINITIONS]
FOV 0.256 0.256 0.256 
Name 3D_stackOfStars 
TotalDuration 0.29648 

# Format of blocks:
#  #  D RF  GX  GY  GZ ADC EXT
[BLOCKS]
  1  0  1   0   0   1  0  0
  2  1  0   0   0   2  0  0
  3  0  0   3   0   0  0  0
  4  0  0   5   0   4  0  0
  5  2  0   0   0   0  0  0
  6  0  2   0   0   1  0  0
  7  1  0   0   0   2  0  0
  8  0  0   6   7   0  0  0
  9  0  0   8   9   4  0  0
 10  2  0   0   0   0  0  0
 11  0  3   0   0   1  0  0
 12  1  0   0   0   2  0  0
 13  0  0  10  11   0  0  0
 14  0  0  12  13   4  0  0
 15  2  0   0   0   0  0  0
 16  0  4   0   0   1  0  0
 17  1  0   0   0   2  0  0
 18  0  0  14  15   0  0  0
 19  0  0  16  17   4  0  0
 20  2  0   0   0   0  0  0
 21  0  5   0   0   1  0  0
 22  1  0   0   0   2  0  0
 23  0  0  18  19   0  0  0
 24  0  0  20  21   4  0  0
 25  2  0   0   0   0  0  0
 26  0  6   0   0   1  0  0
 27  1  0   0   0   2  0  0
 28  0  0   3   0   0  0  0
 29  0  0   5   0   4  1  0
 30  2  0   0   0   0  0  0
 31  0  7   0   0   1  0  0
 32  1  0   0   0   2  0  0
 33  0  0   6   7   0  0  0
 34  0  0   8   9   4  2  0
 35  2  0   0   0   0  0  0
 36  0  8   0   0   1  0  0
 37  1  0   0   0   2  0  0
 38  0  0  10  11   0  0  0
 39  0  0  12  13   4  3  0
 40  2  0   0   0   0  0  0
 41  0  9   0   0   1  0  0
 42  1  0   0   0   2  0  0
 43  0  0  14  15   0  0  0
 44  0  0  16  17   4  4  0
 45  2  0   0   0   0  0  0
 46  0 10   0   0   1  0  0
 47  1  0   0   0   2  0  0
 48  0  0  18  19   0  0  0
 49  0  0  20  21   4  5  0
 50  2  0   0   0   0  0  0
 51  0  6   0   0   1  0  0
 52  1  0   0   0   2  0  0
 53  0  0  22  23   0  0  0
 54  0  0  24  25   4  1  0
 55  2  0   0   0   0  0  0
 56  0 11   0   0   1  0  0
 57  1  0   0   0   2  0  0
 58  0  0  26  27   0  0  0
 59  0  0  28  29   4  6  0
 60  2  0   0   0   0  0  0
 61  0 12   0   0   1  0  0
 62  1  0   0   0   2  0  0
 63  0  0  30  31   0  0  0
 64  0  0  32  33   4  7  0
 65  2  0   0   0   0  0  0
 66  0 13   0   0   1  0  0
 67  1  0   0   0   2  0  0
 68  0  0  34  35   0  0  0
 69  0  0  36  37   4  8  0
 70  2  0   0   0   0  0  0
 71  0 14   0   0   1  0  0
 72  1  0   0   0   2  0  0
 73  0  0  38  39   0  0  0
 74  0  0  40  41   4  9  0
 75  2  0   0   0   0  0  0
 76  0  1   0   0   1  0  0
 77  1  0   0   0   2  0  0
 78  0  0  42  43   0  0  0
 79  0  0  44  45   4 10  0
 80  2  0   0   0   0  0  0
 81  0 15   0   0   1  0  0
 82  1  0   0   0   2  0  0
 83  0  0  46  47   0  0  0
 84  0  0  48  49   4 11  0
 85  2  0   0   0   0  0  0
 86  0 16   0   0   1  0  0
 87  1  0   0   0   2  0  0
 88  0  0  50  51   0  0  0
 89  0  0  52  53   4 12  0
 90  2  0   0   0   0  0  0
 91  0 13   0   0   1  0  0
 92  1  0   0   0   2  0  0
 93  0  0  54  55   0  0  0
 94  0  0  56  57   4  8  0
 95  2  0   0   0   0  0  0
 96  0 17   0   0   1  0  0
 97  1  0   0   0   2  0  0
 98  0  0  58  59   0  0  0
 99  0  0  60  61   4 13  0
100  2  0   0   0   0  0  0
101  0  5   0   0   1  0  0
102  1  0   0   0   2  0  0
103  0  0  62  63   0  0  0
104  0  0  64  65   4 14  0
105  2  0   0   0   0  0  0
106  0 18   0   0   1  0  0
107  1  0   0   0   2  0  0
108  0  0  66  67   0  0  0
109  0  0  68  69   4 15  0
110  2  0   0   0   0  0  0
111  0 19   0   0   1  0  0
112  1  0   0   0   2  0  0
113  0  0  70  71   0  0  0
114  0  0  72  73   4 16  0
115  2  0   0   0   0  0  0
116  0  9   0   0   1  0  0
117  1  0   0   0   2  0  0
118  0  0  74  75   0  0  0
119  0  0  76  77   4  4  0
120  2  0   0   0   0  0  0
121  0 20   0   0   1  0  0
122  1  0   0   0   2  0  0
123  0  0  78  79   0  0  0
124  0  0  80  81   4 17  0
125  2  0   0   0   0  0  0
126  0 10   0   0   1  0  0
127  1  0   0   0   2  0  0
128  0  0  82  83   0  0  0
129  0  0  84  85   4  5  0
130  2  0   0   0   0  0  0
131  0 18   0   0   1  0  0
132  1  0   0   0  86  0  0
133  0  0  87  88   0  0  0
134  0  0   5  90  89 15  0
135  2  0   0   0   0  0  0
136  0 21   0   0   1  0  0
137  1  0   0   0  86  0  0
138  0  0  91  92   0  0  0
139  0  0  93  94  89 18  0
140  2  0   0   0   0  0  0
141  0  4   0   0   1  0  0
142  1  0   0   0  86  0  0
143  0  0  95  96   0  0  0
144  0  0  97  98  89 19  0
145  2  0   0   0   0  0  0
146  0 22   0   0   1  0  0
147  1  0   0   0  86  0  0
148  0  0  99 100   0  0  0
149  0  0 101 102  89 20  0
150  2  0   0   0   0  0  0
151  0 14   0   0   1  0  0
152  1  0   0   0  86  0  0
153  0  0 103 104   0  0  0
154  0  0 105 106  89  9  0
155  2  0   0   0   0  0  0
156  0 15   0   0   1  0  0
157  1  0   0   0  86  0  0
158  0  0 107 108   0  0  0
159  0  0 109 110  89 11  0
160  2  0   0   0   0  0  0
161  0 23   0   0   1  0  0
162  1  0   0   0  86  0  0
163  0  0 111 112   0  0  0
164  0  0 113 114  89 21  0
165  2  0   0   0   0  0  0
166  0  2   0   0   1  0  0
167  1  0   0   0  86  0  0
168  0  0 115 116   0  0  0
169  0  0 117 118  89 22  0
170  2  0   0   0   0  0  0
171  0 22   0   0   1  0  0
172  1  0   0   0  86  0  0
173  0  0 119 120   0  0  0
174  0  0 121 122  89 20  0
175  2  0   0   0   0  0  0
176  0 17   0   0   1  0  0
177  1  0   0   0  86  0  0
178  0  0 123 124   0  0  0
179  0  0 125 126  89 13  0
180  2  0   0   0   0  0  0
181  0 11   0   0   1  0  0
182  1  0   0   0  86  0  0
183  0  0 127 128   0  0  0
184  0  0 129 130  89  6  0
185  2  0   0   0   0  0  0
186  0 24   0   0   1  0  0
187  1  0   0   0  86  0  0
188  0  0 131 132   0  0  0
189  0  0 133 134  89 23  0
190  2  0   0   0   0  0  0
191  0  7   0   0   1  0  0
192  1  0   0   0  86  0  0
193  0  0 135 136   0  0  0
194  0  0 137 138  89  2  0
195  2  0   0   0   0  0  0
196  0 20   0   0   1  0  0
197  1  0   0   0  86  0  0
198  0  0 139 140   0  0  0
199  0  0 141 142  89 17  0
200  2  0   0   0   0  0  0
201  0 20   0   0   1  0  0
202  1  0   0   0  86  0  0
203  0  0 143 144   0  0  0
204  0  0 145 146  89 17  0
205  2  0   0   0   0  0  0
206  0  7   0   0   1  0  0
207  1  0   0   0  86  0  0
208  0  0 147 148   0  0  0
209  0  0 149 150  89  2  0
210  2  0   0   0   0  0  0
211  0 24   0   0   1  0  0
212  1  0   0   0  86  0  0
213  0  0 151 152   0  0  0
214  0  0 153 154  89 23  0
215  2  0   0   0   0  0  0
216  0 11   0   0   1  0  0
217  1  0   0   0  86  0  0
218  0  0 155 156   0  0  0
219  0  0 157 158  89  6  0
220  2  0   0   0   0  0  0
221  0 17   0   0   1  0  0
222  1  0   0   0  86  0  0
223  0  0 159 160   0  0  0
224  0  0 161 162  89 13  0
225  2  0   0   0   0  0  0
226  0 22   0   0   1  0  0
227  1  0   0   0  86  0  0
228  0  0 163 164   0  0  0
229  0  0 165 166  89 20  0
230  2  0   0   0   0  0  0
231  0  2   0   0   1  0  0
232  1  0   0   0  86  0  0
233  0  0 167 168   0  0  0
234  0  0 169 170  89 22  0
235  2  0   0   0   0  0  0
236  0 23   0   0   1  0  0
237  1  0   0   0 171  0  0
238  0  0 172 173   0  0  0
239  0  0 175 176 174 21  0
240  2  0   0   0   0  0  0
241  0 15   0   0   1  0  0
242  1  0   0   0 171  0  0
243  0  0 177 178   0  0  0
244  0  0 179 180 174 11  0
245  2  0   0   0   0  0  0
246  0 14   0   0   1  0  0
247  1  0   0   0 171  0  0
248  0  0 181 182   0  0  0
249  0  0 183 184 174  9  0
250  2  0   0   0   0  0  0
251  0 22   0   0   1  0  0
252  1  0   0   0 171  0  0
253  0  0 185 186   0  0  0
254  0  0 187 188 174 20  0
255  2  0   0   0   0  0  0
256  0  4   0   0   1  0  0
257  1  0   0   0 171  0  0
258  0  0 189 190   0  0  0
259  0  0 191 192 174 19  0
260  2  0   0   0   0  0  0
261  0 21   0   0   1  0  0
262  1  0   0   0 171  0  0
263  0  0 193 194   0  0  0
264  0  0 195 196 174 18  0
265  2  0   0   0   0  0  0
266  0 18   0   0   1  0  0
267  1  0   0   0 171  0  0
268  0  0 197 198   0  0  0
269  0  0 199 200 174 15  0
270  2  0   0   0   0  0  0
271  0 10   0   0   1  0  0
272  1  0   0   0 171  0  0
273  0  0 201 202   0  0  0
274  0  0 203 204 174  5  0
275  2  0   0   0   0  0  0
276  0 20   0   0   1  0  0
277  1  0   0   0 171  0  0
278  0  0 205 206   0  0  0
279  0  0 207 208 174 17  0
280  2  0   0   0   0  0  0
281  0  9   0   0   1  0  0
282  1  0   0   0 171  0  0
283  0  0 209 210   0  0  0
284  0  0 211 212 174  4  0
285  2  0   0   0   0  0  0
286  0 19   0   0   1  0  0
287  1  0   0   0 171  0  0
288  0  0 213 214   0  0  0
289  0  0 215 216 174 16  0
290  2  0   0   0   0  0  0
291  0 18   0   0   1  0  0
292  1  0   0   0 171  0  0
293  0  0 217 218   0  0  0
294  0  0 219 220 174 15  0
295  2  0   0   0   0  0  0
296  0  5   0   0   1  0  0
297  1  0   0   0 171  0  0
298  0  0 221 222   0  0  0
299  0  0 223 224 174 14  0
300  2  0   0   0   0  0  0
301  0 17   0   0   1  0  0
302  1  0   0   0 171  0  0
303  0  0 225 226   0  0  0
304  0  0 227 228 174 13  0
305  2  0   0   0   0  0  0
306  0 13   0   0   1  0  0
307  1  0   0   0 171  0  0
308  0  0 229 230   0  0  0
309  0  0 231 232 174  8  0
310  2  0   0   0   0  0  0
311  0 16   0   0   1  0  0
312  1  0   0   0 171  0  0
313  0  0 233 234   0  0  0
314  0  0 235 236 174 12  0
315  2  0   0   0   0  0  0
316  0 15   0   0   1  0  0
317  1  0   0   0 171  0  0
318  0  0 237 238   0  0  0
319  0  0 239 240 174 11  0
320  2  0   0   0   0  0  0
321  0  1   0   0   1  0  0
322  1  0   0   0 171  0  0
323  0  0 241 242   0  0  0
324  0  0 243 244 174 10  0
325  2  0   0   0   0  0  0
326  0 14   0   0   1  0  0
327  1  0   0   0 171  0  0
328  0  0 245 246   0  0  0
329  0  0 247 248 174  9  0
330  2  0   0   0   0  0  0
331  0 13   0   0   1  0  0
332  1  0   0   0 171  0  0
333  0  0 249 250   0  0  0
334  0  0 251 252 174  8  0
335  2  0   0   0   0  0  0
336  0 12   0   0   1  0  0
337  1  0   0   0 171  0  0
338  0  0 253 254   0  0  0
339  0  0 255 256 174  7  0
340  2  0   0   0   0  0  0

# Format of RF events:
# id amplitude mag_id phase_id delay freq phase
# ..        Hz   ....     ....    us   Hz   rad
[RF]
1      85.1875 1 2 100 0 2.04204
2      85.1875 1 2 100 0 4.08407
3      85.1875 1 2 100 0 1.88496
4      85.1875 1 2 100 0 1.72788
5      85.1875 1 2 100 0 3.61283
6      85.1875 1 2 100 0 1.25664
7      85.1875 1 2 100 0 0.942478
8      85.1875 1 2 100 0 2.67035
9      85.1875 1 2 100 0 0.15708
10      85.1875 1 2 100 0 5.96903
11      85.1875 1 2 100 0 4.86947
12      85.1875 1 2 100 0 4.24115
13      85.1875 1 2 100 0 5.65487
14      85.1875 1 2 100 0 2.82743
15      85.1875 1 2 100 0 3.29867
16      85.1875 1 2 100 0 0.314159
17      85.1875 1 2 100 0 0.471239
18      85.1875 1 2 100 0 2.51327
19      85.1875 1 2 100 0 3.45575
20      85.1875 1 2 100 0 5.18363
21      85.1875 1 2 100 0 1.09956
22      85.1875 1 2 100 0 4.39823
23      85.1875 1 2 100 0 5.81195
24      85.1875 1 2 100 0 5.02655

# Format of trapezoid gradients:
# id amplitude rise flat fall delay
# ..      Hz/m   us   us   us    us
[TRAP]
 1      19531.2  10  400  10  90
 2 -1.40001e+06 220  140 220   0
 3 -2.08729e+06 340    0 340   0
 4      -724638 120  570 120 880
 5   1.6129e+06 260  800 260   0
 6       756380 340    0 340   0
 7 -1.94542e+06 340    0 340   0
 8      -584476 260  800 260   0
 9  1.50328e+06 260  800 260   0
10   1.5391e+06 340    0 340   0
11  1.40994e+06 340    0 340   0
12  -1.1893e+06 260  800 260   0
13  -1.0895e+06 260  800 260   0
14 -1.87184e+06 340    0 340   0
15       923564 340    0 340   0
16  1.44642e+06 260  800 260   0
17      -713663 260  800 260   0
18      -182483 340    0 340   0
19 -2.07929e+06 340    0 340   0
20       141009 260  800 260   0
21  1.60673e+06 260  800 260   0
22   2.0041e+06 340    0 340   0
23       583404 340    0 340   0
24 -1.54862e+06 260  800 260   0
25      -450813 260  800 260   0
26 -1.26999e+06 340    0 340   0
27  1.65647e+06 340    0 340   0
28       981353 260  800 260   0
29    -1.28e+06 260  800 260   0
30 -1.08367e+06 340    0 340   0
31 -1.78393e+06 340    0 340   0
32       837385 260  800 260   0
33  1.37849e+06 260  800 260   0
34  2.05538e+06 340    0 340   0
35      -363568 340    0 340   0
36 -1.58825e+06 260  800 260   0
37       280939 260  800 260   0
38      -405961 340    0 340   0
39  2.04743e+06 340    0 340   0
40       313697 260  800 260   0
41  -1.5821e+06 260  800 260   0
42 -1.76116e+06 340    0 340   0
43 -1.12031e+06 340    0 340   0
44   1.3609e+06 260  800 260   0
45       865690 260  800 260   0
46  1.68236e+06 340    0 340   0
47 -1.23549e+06 340    0 340   0
48 -1.30001e+06 260  800 260   0
49       954694 260  800 260   0
50       541869 340    0 340   0
51  2.01572e+06 340    0 340   0
52      -418717 260  800 260   0
53  -1.5576e+06 260  800 260   0
54 -2.07508e+06 340    0 340   0
55      -225409 340    0 340   0
56  1.60347e+06 260  800 260   0
57       174179 260  800 260   0
58       962045 340    0 340   0
59 -1.85236e+06 340    0 340   0
60      -743398 260  800 260   0
61  1.43137e+06 260  800 260   0
62  1.37784e+06 340    0 340   0
63  1.56791e+06 340    0 340   0
64 -1.06469e+06 260  800 260   0
65 -1.21156e+06 260  800 260   0
66 -1.96063e+06 340    0 340   0
67       716020 340    0 340   0
68  1.51503e+06 260  800 260   0
69      -553288 260  800 260   0
70      43130.3 340    0 340   0
71 -2.08684e+06 340    0 340   0
72     -33327.9 260  800 260   0
73  1.61256e+06 260  800 260   0
74  1.92937e+06 340    0 340   0
75       796418 340    0 340   0
76 -1.49088e+06 260  800 260   0
77      -615414 260  800 260   0
78 -1.44144e+06 340    0 340   0
79  1.50964e+06 340    0 340   0
80  1.11384e+06 260  800 260   0
81 -1.16654e+06 260  800 260   0
82      -884688 340    0 340   0
83 -1.89053e+06 340    0 340   0
84       683623 260  800 260   0
85  1.46086e+06 260  800 260   0
86      -7024.4  10  560  10   0
87 -2.08728e+06 340    0 340   0
88     -2775.38 340    0 340   0
89  2.04082e+06 320  170 320 880
90      2144.61 260  800 260   0
91       758966 340    0 340   0
92 -1.94441e+06 340    0 340   0
93      -586474 260  800 260   0
94   1.5025e+06 260  800 260   0
95  1.53722e+06 340    0 340   0
96  1.41199e+06 340    0 340   0
97 -1.18785e+06 260  800 260   0
98 -1.09108e+06 260  800 260   0
99 -1.87307e+06 340    0 340   0
100       921074 340    0 340   0
101  1.44737e+06 260  800 260   0
102      -711739 260  800 260   0
103      -179718 340    0 340   0
104 -2.07954e+06 340    0 340   0
105       138873 260  800 260   0
106  1.60691e+06 260  800 260   0
107  2.00332e+06 340    0 340   0
108       586069 340    0 340   0
109 -1.54802e+06 260  800 260   0
110      -452871 260  800 260   0
111 -1.27219e+06 340    0 340   0
112  1.65478e+06 340    0 340   0
113       983054 260  800 260   0
114  -1.2787e+06 260  800 260   0
115  -1.0813e+06 340    0 340   0
116 -1.78537e+06 340    0 340   0
117       835551 260  800 260   0
118  1.37961e+06 260  800 260   0
119  2.05586e+06 340    0 340   0
120      -360834 340    0 340   0
121 -1.58862e+06 260  800 260   0
122       278827 260  800 260   0
123      -408683 340    0 340   0
124  2.04689e+06 340    0 340   0
125       315801 260  800 260   0
126 -1.58168e+06 260  800 260   0
127 -1.75967e+06 340    0 340   0
128 -1.12265e+06 340    0 340   0
129  1.35974e+06 260  800 260   0
130       867499 260  800 260   0
131    1.684e+06 340    0 340   0
132 -1.23325e+06 340    0 340   0
133 -1.30127e+06 260  800 260   0
134       952965 260  800 260   0
135       539188 340    0 340   0
136  2.01644e+06 340    0 340   0
137      -416645 260  800 260   0
138 -1.55816e+06 260  800 260   0
139 -2.07478e+06 340    0 340   0
140      -228168 340    0 340   0
141  1.60324e+06 260  800 260   0
142       176311 260  800 260   0
143       964507 340    0 340   0
144 -1.85108e+06 340    0 340   0
145      -745301 260  800 260   0
146  1.43038e+06 260  800 260   0
147  1.37575e+06 340    0 340   0
148  1.56974e+06 340    0 340   0
149 -1.06308e+06 260  800 260   0
150 -1.21298e+06 260  800 260   0
151 -1.96158e+06 340    0 340   0
152       713412 340    0 340   0
153  1.51577e+06 260  800 260   0
154      -551273 260  800 260   0
155        45905 340    0 340   0
156 -2.08678e+06 340    0 340   0
157     -35472.1 260  800 260   0
158  1.61251e+06 260  800 260   0
159  1.92831e+06 340    0 340   0
160       798982 340    0 340   0
161 -1.49006e+06 260  800 260   0
162      -617395 260  800 260   0
163 -1.44345e+06 340    0 340   0
164  1.50772e+06 340    0 340   0
165  1.11539e+06 260  800 260   0
166 -1.16506e+06 260  800 260   0
167      -882173 340    0 340   0
168  -1.8917e+06 340    0 340   0
169       681680 260  800 260   0
170  1.46177e+06 260  800 260   0
171  1.32997e+06 210  160 210   0
172 -2.08723e+06 340    0 340   0
173     -15334.6 340    0 340   0
174       730299 120  570 120 880
175  1.61286e+06 260  800 260   0
176      11849.5 260  800 260   0
177       770652 340    0 340   0
178 -1.93981e+06 340    0 340   0
179      -595504 260  800 260   0
180  1.49894e+06 260  800 260   0
181   1.5287e+06 340    0 340   0
182  1.42121e+06 340    0 340   0
183 -1.18127e+06 260  800 260   0
184 -1.09821e+06 260  800 260   0
185 -1.87858e+06 340    0 340   0
186       909787 340    0 340   0
187  1.45163e+06 260  800 260   0
188      -703017 260  800 260   0
189      -167202 340    0 340   0
190 -2.08058e+06 340    0 340   0
191       129201 260  800 260   0
192  1.60772e+06 260  800 260   0
193  1.99976e+06 340    0 340   0
194       598112 340    0 340   0
195 -1.54527e+06 260  800 260   0
196      -462178 260  800 260   0
197 -1.28212e+06 340    0 340   0
198   1.6471e+06 340    0 340   0
199       990730 260  800 260   0
200 -1.27276e+06 260  800 260   0
201 -1.07054e+06 340    0 340   0
202 -1.79185e+06 340    0 340   0
203       827235 260  800 260   0
204  1.38461e+06 260  800 260   0
205  2.05799e+06 340    0 340   0
206      -348458 340    0 340   0
207 -1.59027e+06 260  800 260   0
208       269263 260  800 260   0
209      -420992 340    0 340   0
210  2.04439e+06 340    0 340   0
211       325312 260  800 260   0
212 -1.57976e+06 260  800 260   0
213 -1.75288e+06 340    0 340   0
214 -1.13321e+06 340    0 340   0
215   1.3545e+06 260  800 260   0
216       875665 260  800 260   0
217  1.69139e+06 340    0 340   0
218 -1.22309e+06 340    0 340   0
219 -1.30698e+06 260  800 260   0
220       945118 260  800 260   0
221       527045 340    0 340   0
222  2.01965e+06 340    0 340   0
223      -407262 260  800 260   0
224 -1.56064e+06 260  800 260   0
225 -2.07337e+06 340    0 340   0
226      -240648 340    0 340   0
227  1.60215e+06 260  800 260   0
228       185955 260  800 260   0
229       975628 340    0 340   0
230 -1.84524e+06 340    0 340   0
231      -753894 260  800 260   0
232  1.42587e+06 260  800 260   0
233  1.36628e+06 340    0 340   0
234  1.57799e+06 340    0 340   0
235 -1.05576e+06 260  800 260   0
236 -1.21935e+06 260  800 260   0
237 -1.96584e+06 340    0 340   0
238       701596 340    0 340   0
239  1.51906e+06 260  800 260   0
240      -542143 260  800 260   0
241      58460.5 340    0 340   0
242 -2.08647e+06 340    0 340   0
243       -45174 260  800 260   0
244  1.61227e+06 260  800 260   0
245  1.92347e+06 340    0 340   0
246       810571 340    0 340   0
247 -1.48632e+06 260  800 260   0
248      -626350 260  800 260   0
249  -1.4525e+06 340    0 340   0
250  1.49901e+06 340    0 340   0
251  1.12238e+06 260  800 260   0
252 -1.15832e+06 260  800 260   0
253      -870775 340    0 340   0
254 -1.89698e+06 340    0 340   0
255       672872 260  800 260   0
256  1.46584e+06 260  800 260   0

# Format of ADC events:
# id num dwell delay freq phase
# ..  ..    ns    us   Hz   rad
[ADC]
1 512 1211 260 0 1.25664
2 512 1211 260 0 0.942478
3 512 1211 260 0 2.67035
4 512 1211 260 0 0.15708
5 512 1211 260 0 5.96903
6 512 1211 260 0 4.86947
7 512 1211 260 0 4.24115
8 512 1211 260 0 5.65487
9 512 1211 260 0 2.82743
10 512 1211 260 0 2.04204
11 512 1211 260 0 3.29867
12 512 1211 260 0 0.314159
13 512 1211 260 0 0.471239
14 512 1211 260 0 3.61283
15 512 1211 260 0 2.51327
16 512 1211 260 0 3.45575
17 512 1211 260 0 5.18363
18 512 1211 260 0 1.09956
19 512 1211 260 0 1.72788
20 512 1211 260 0 4.39823
21 512 1211 260 0 5.81195
22 512 1211 260 0 4.08407
23 512 1211 260 0 5.02655

# Format of delays:
# id delay (us)
[DELAYS]
1 740
2 730

# Sequence Shapes
[SHAPES]

shape_id 1
num_samples 420
3e-07
2.2e-06
5.9e-06
1.17e-05
1.94e-05
2.9e-05
4.08e-05
5.45e-05
7.05e-05
8.84e-05
0.0001085
0.0001308
0.0001552
0.0001819
0.0002107
0.0002418
0.0002751
0.0003107
0.0003486
0.0003886
0.0004309
0.0004757
0.0005225
0.0005717
0.0006231
0.0006769
0.0007328
0.0007911
0.0008515
0.0009143
0.0009791
0.0010463
0.0011155
0.001187
0.0012606
0.0013362
0.001414
0.0014938
0.0015757
0.0016595
0.0017453
0.001833
0.0019226
0.002014
0.0021073
0.0022022
0.002299
0.0023972
0.0024973
0.0025987
0.0027018
0.0028063
0.0029121
0.0030193
0.0031278
0.0032375
0.0033484
0.0034603
0.0035733
0.0036872
0.003802
0.0039176
0.0040341
0.004151
0.0042687
0.0043869
0.0045055
0.0046245
0.0047438
0.0048634
0.004983
0.0051027
0.0052224
0.005342
0.0054614
0.0055805
0.0056993
0.0058177
0.0059355
0.0060527
0.0061693
0.006285
0.0064
0.0065139
0.0066269
0.0067386
0.0068493
0.0069586
0.0070666
0.0071731
0.0072781
0.0073815
0.0074831
0.007583
0.0076809
0.007777
0.0078711
0.007963
0.0080526
0.0081402
0.0082252
0.008308
0.0083882
0.0084658
0.0085408
0.008613
0.0086826
0.0087493
0.0088129
0.0088738
0.0089315
0.008986
0.0090375
0.0090858
0.0091306
0.0091723
0.0092104
0.0092452
0.0092765
0.0093042
0.0093284
0.0093488
0.0093657
0.0093788
0.0093882
0.0093937
0.0093956
0.0093935
0.0093876
0.0093777
0.0093639
0.0093463
0.0093246
0.009299
0.0092693
0.0092357
0.009198
0.0091564
0.0091107
0.009061
0.0090073
0.0089495
0.0088878
0.008822
0.0087523
0.0086786
0.0086008
0.0085193
0.0084337
0.0083443
0.008251
0.0081539
0.0080529
0.0079483
0.0078397
0.0077276
0.0076118
0.0074924
0.0073695
0.0072429
0.007113
0.0069796
0.0068428
0.0067029
0.0065596
0.0064131
0.0062635
0.006111
0.0059554
0.0057968
0.0056356
0.0054714
0.0053046
0.0051352
0.0049633
0.004789
0.0046121
0.0044331
0.0042519
0.0040686
0.0038831
0.0036959
0.0035067
0.0033159
0.0031232
0.0029292
0.0027336
0.0025366
0.0023385
0.002139
0.0019386
0.0017371
0.0015348
0.0013318
0.001128
0.0009237
0.0007189
0.0005137
0.0003084
0.0001028
-0.0001028
-0.0003084
-0.0005137
-0.0007189
-0.0009237
-0.001128
-0.0013318
-0.0015348
-0.0017371
-0.0019386
-0.002139
-0.0023385
-0.0025366
-0.0027336
-0.0029292
-0.0031232
-0.0033159
-0.0035067
-0.0036959
-0.0038831
-0.0040686
-0.0042519
-0.0044331
-0.0046121
-0.004789
-0.0049633
-0.0051352
-0.0053046
-0.0054714
-0.0056356
-0.0057968
-0.0059554
-0.006111
-0.0062635
-0.0064131
-0.0065596
-0.0067029
-0.0068428
-0.0069796
-0.007113
-0.0072429
-0.0073695
-0.0074924
-0.0076118
-0.0077276
-0.0078397
-0.0079483
-0.0080529
-0.0081539
-0.008251
-0.0083443
-0.0084337
-0.0085193
-0.0086008
-0.0086786
-0.0087523
-0.008822
-0.0088878
-0.0089495
-0.0090073
-0.009061
-0.0091107
-0.0091564
-0.009198
-0.0092357
-0.0092693
-0.009299
-0.0093246
-0.0093463
-0.0093639
-0.0093777
-0.0093876
-0.0093935
-0.0093956
-0.0093937
-0.0093882
-0.0093788
-0.0093657
-0.0093488
-0.0093284
-0.0093042
-0.0092765
-0.0092452
-0.0092104
-0.0091723
-0.0091306
-0.0090858
-0.0090375
-0.008986
-0.0089315
-0.0088738
-0.0088129
-0.0087493
-0.0086826
-0.008613
-0.0085408
-0.0084658
-0.0083882
-0.008308
-0.0082252
-0.0081402
-0.0080526
-0.007963
-0.0078711
-0.007777
-0.0076809
-0.007583
-0.0074831
-0.0073815
-0.0072781
-0.0071731
-0.0070666
-0.0069586
-0.0068493
-0.0067386
-0.0066269
-0.0065139
-0.0064
-0.006285
-0.0061693
-0.0060527
-0.0059355
-0.0058177
-0.0056993
-0.0055805
-0.0054614
-0.005342
-0.0052224
-0.0051027
-0.004983
-0.0048634
-0.0047438
-0.0046245
-0.0045055
-0.0043869
-0.0042687
-0.004151
-0.0040341
-0.0039176
-0.003802
-0.0036872
-0.0035733
-0.0034603
-0.0033484
-0.0032375
-0.0031278
-0.0030193
-0.0029121
-0.0028063
-0.0027018
-0.0025987
-0.0024973
-0.0023972
-0.002299
-0.0022022
-0.0021073
-0.002014
-0.0019226
-0.001833
-0.0017453
-0.0016595
-0.0015757
-0.0014938
-0.001414
-0.0013362
-0.0012606
-0.001187
-0.0011155
-0.0010463
-0.0009791
-0.0009143
-0.0008515
-0.0007911
-0.0007328
-0.0006769
-0.0006231
-0.0005717
-0.0005225
-0.0004757
-0.0004309
-0.0003886
-0.0003486
-0.0003107
-0.0002751
-0.0002418
-0.0002107
-0.0001819
-0.0001552
-0.0001308
-0.0001085
-8.84e-05
-7.05e-05
-5.45e-05
-4.08e-05
-2.9e-05
-1.94e-05
-1.17e-05
-5.9e-06
-2.2e-06
-3e-07
0
0
18

shape_id 2
num_samples 420
0
0
418

