# Pulseq sequence file
# Created by MATLAB mr toolbox

[VERSION]
major 1
minor 3
revision 1

[DEFINITIONS]
FOV 0.256 0.256 0.256 
Name 3D_stackOfStars 
TotalDuration 2.25412 

# Format of blocks:
#  #  D RF  GX  GY  GZ ADC EXT
[BLOCKS]
   1  0  1   0   0   1  0  0
   2  1  0   0   0   2  0  0
   3  0  0   3   0   0  0  0
   4  0  0   5   0   4  0  0
   5  2  0   0   0   0  0  0
   6  0  2   0   0   1  0  0
   7  1  0   0   0   6  0  0
   8  0  0   7   8   0  0  0
   9  0  0  10  11   9  0  0
  10  2  0   0   0   0  0  0
  11  0  3   0   0   1  0  0
  12  1  0   0   0  12  0  0
  13  0  0  13  14   0  0  0
  14  0  0   5  16  15  0  0
  15  2  0   0   0   0  0  0
  16  0  4   0   0   1  0  0
  17  1  0   0   0  17  0  0
  18  0  0  18  19   0  0  0
  19  0  0  21  22  20  0  0
  20  2  0   0   0   0  0  0
  21  0  5   0   0   1  0  0
  22  1  0   0   0  23  0  0
  23  0  0  24  25   0  0  0
  24  0  0  27  28  26  0  0
  25  2  0   0   0   0  0  0
  26  0  6   0   0   1  0  0
  27  1  0   0   0   2  0  0
  28  0  0   3   0   0  0  0
  29  0  0   5   0   4  1  0
  30  2  0   0   0   0  0  0
  31  0  7   0   0   1  0  0
  32  1  0   0   0   6  0  0
  33  0  0   7   8   0  0  0
  34  0  0  10  11   9  2  0
  35  2  0   0   0   0  0  0
  36  0  8   0   0   1  0  0
  37  1  0   0   0  12  0  0
  38  0  0  13  14   0  0  0
  39  0  0   5  16  15  3  0
  40  2  0   0   0   0  0  0
  41  0  9   0   0   1  0  0
  42  1  0   0   0  17  0  0
  43  0  0  18  19   0  0  0
  44  0  0  21  22  20  4  0
  45  2  0   0   0   0  0  0
  46  0 10   0   0   1  0  0
  47  1  0   0   0  23  0  0
  48  0  0  24  25   0  0  0
  49  0  0  27  28  26  5  0
  50  2  0   0   0   0  0  0
  51  0  6   0   0   1  0  0
  52  1  0   0   0  29  0  0
  53  0  0   3  30   0  0  0
  54  0  0   5  32  31  1  0
  55  2  0   0   0   0  0  0
  56  0 11   0   0   1  0  0
  57  1  0   0   0  33  0  0
  58  0  0  34  35   0  0  0
  59  0  0  37  38  36  6  0
  60  2  0   0   0   0  0  0
  61  0 12   0   0   1  0  0
  62  1  0   0   0  39  0  0
  63  0  0  40  41   0  0  0
  64  0  0  43  44  42  7  0
  65  2  0   0   0   0  0  0
  66  0 13   0   0   1  0  0
  67  1  0   0   0  45  0  0
  68  0  0  46  47   0  0  0
  69  0  0  49  50  48  8  0
  70  2  0   0   0   0  0  0
  71  0 14   0   0   1  0  0
  72  1  0   0   0  51  0  0
  73  0  0  52  53   0  0  0
  74  0  0  10  55  54  9  0
  75  2  0   0   0   0  0  0
  76  0  1   0   0   1  0  0
  77  1  0   0   0  56  0  0
  78  0  0  13  57   0  0  0
  79  0  0   5  59  58 10  0
  80  2  0   0   0   0  0  0
  81  0 15   0   0   1  0  0
  82  1  0   0   0  60  0  0
  83  0  0  61  62   0  0  0
  84  0  0  64  65  63 11  0
  85  2  0   0   0   0  0  0
  86  0 16   0   0   1  0  0
  87  1  0   0   0  66  0  0
  88  0  0  67  68   0  0  0
  89  0  0  27  70  69 12  0
  90  2  0   0   0   0  0  0
  91  0 13   0   0   1  0  0
  92  1  0   0   0  71  0  0
  93  0  0   3  72   0  0  0
  94  0  0   5  74  73  8  0
  95  2  0   0   0   0  0  0
  96  0 17   0   0   1  0  0
  97  1  0   0   0  75  0  0
  98  0  0  76  77   0  0  0
  99  0  0  79  80  78 13  0
 100  2  0   0   0   0  0  0
 101  0  5   0   0   1  0  0
 102  1  0   0   0  81  0  0
 103  0  0  13  82   0  0  0
 104  0  0  43  84  83 14  0
 105  2  0   0   0   0  0  0
 106  0 18   0   0   1  0  0
 107  1  0   0   0  85  0  0
 108  0  0  86  87   0  0  0
 109  0  0  21  89  88 15  0
 110  2  0   0   0   0  0  0
 111  0 19   0   0   1  0  0
 112  1  0   0   0  90  0  0
 113  0  0  24  91   0  0  0
 114  0  0  93  94  92 16  0
 115  2  0   0   0   0  0  0
 116  0  9   0   0   1  0  0
 117  1  0   0   0  95  0  0
 118  0  0  13  96   0  0  0
 119  0  0   5  98  97  4  0
 120  2  0   0   0   0  0  0
 121  0 20   0   0   1  0  0
 122  1  0   0   0  99  0  0
 123  0  0 100 101   0  0  0
 124  0  0  37 103 102 17  0
 125  2  0   0   0   0  0  0
 126  0 10   0   0   1  0  0
 127  1  0   0   0 104  0  0
 128  0  0  40 105   0  0  0
 129  0  0  43 107 106  5  0
 130  2  0   0   0   0  0  0
 131  0 18   0   0   1  0  0
 132  1  0   0   0 108  0  0
 133  0  0 109 110   0  0  0
 134  0  0  49 112 111 15  0
 135  2  0   0   0   0  0  0
 136  0 21   0   0   1  0  0
 137  1  0   0   0 113  0  0
 138  0  0   7 114   0  0  0
 139  0  0  10 116 115 18  0
 140  2  0   0   0   0  0  0
 141  0  4   0   0   1  0  0
 142  1  0   0   0 117  0  0
 143  0  0  13 118   0  0  0
 144  0  0   5 120 119 19  0
 145  2  0   0   0   0  0  0
 146  0 22   0   0   1  0  0
 147  1  0   0   0 121  0  0
 148  0  0 122 123   0  0  0
 149  0  0 125 126 124 20  0
 150  2  0   0   0   0  0  0
 151  0 14   0   0   1  0  0
 152  1  0   0   0 127  0  0
 153  0  0  24 128   0  0  0
 154  0  0  27 130 129  9  0
 155  2  0   0   0   0  0  0
 156  0 15   0   0   1  0  0
 157  1  0   0   0 131  0  0
 158  0  0   3 132   0  0  0
 159  0  0   5 134 133 11  0
 160  2  0   0   0   0  0  0
 161  0 23   0   0   1  0  0
 162  1  0   0   0 135  0  0
 163  0  0  34 136   0  0  0
 164  0  0  79 138 137 21  0
 165  2  0   0   0   0  0  0
 166  0  2   0   0   1  0  0
 167  1  0   0   0 139  0  0
 168  0  0  40 140   0  0  0
 169  0  0  43 142 141 22  0
 170  2  0   0   0   0  0  0
 171  0 22   0   0   1  0  0
 172  1  0   0   0 143  0  0
 173  0  0  46 144   0  0  0
 174  0  0 146 147 145 20  0
 175  2  0   0   0   0  0  0
 176  0 17   0   0   1  0  0
 177  1  0   0   0 148  0  0
 178  0  0  52 149   0  0  0
 179  0  0  93 151 150 13  0
 180  2  0   0   0   0  0  0
 181  0 11   0   0   1  0  0
 182  1  0   0   0 152  0  0
 183  0  0  13 153   0  0  0
 184  0  0   5 155 154  6  0
 185  2  0   0   0   0  0  0
 186  0 24   0   0   1  0  0
 187  1  0   0   0 156  0  0
 188  0  0  61 157   0  0  0
 189  0  0  64 159 158 23  0
 190  2  0   0   0   0  0  0
 191  0  7   0   0   1  0  0
 192  1  0   0   0 160  0  0
 193  0  0  67 161   0  0  0
 194  0  0  27 163 162  2  0
 195  2  0   0   0   0  0  0
 196  0 20   0   0   1  0  0
 197  1  0   0   0 164  0  0
 198  0  0   3 165   0  0  0
 199  0  0   5 167 166 17  0
 200  2  0   0   0   0  0  0
 201  0 20   0   0   1  0  0
 202  1  0   0   0 168  0  0
 203  0  0  76 169   0  0  0
 204  0  0  79 171 170 17  0
 205  2  0   0   0   0  0  0
 206  0  7   0   0   1  0  0
 207  1  0   0   0 172  0  0
 208  0  0  13 173   0  0  0
 209  0  0   5 175 174  2  0
 210  2  0   0   0   0  0  0
 211  0 24   0   0   1  0  0
 212  1  0   0   0 176  0  0
 213  0  0  18 177   0  0  0
 214  0  0  21 179 178 23  0
 215  2  0   0   0   0  0  0
 216  0 11   0   0   1  0  0
 217  1  0   0   0 180  0  0
 218  0  0  24 181   0  0  0
 219  0  0  93 183 182  6  0
 220  2  0   0   0   0  0  0
 221  0 17   0   0   1  0  0
 222  1  0   0   0 184  0  0
 223  0  0  13 185   0  0  0
 224  0  0   5 187 186 13  0
 225  2  0   0   0   0  0  0
 226  0 22   0   0   1  0  0
 227  1  0   0   0 188  0  0
 228  0  0 100 189   0  0  0
 229  0  0  37 191 190 20  0
 230  2  0   0   0   0  0  0
 231  0  2   0   0   1  0  0
 232  1  0   0   0 192  0  0
 233  0  0  40 193   0  0  0
 234  0  0  43 195 194 22  0
 235  2  0   0   0   0  0  0
 236  0 23   0   0   1  0  0
 237  1  0   0   0 196  0  0
 238  0  0 109 197   0  0  0
 239  0  0  49 199 198 21  0
 240  2  0   0   0   0  0  0
 241  0 15   0   0   1  0  0
 242  1  0   0   0 200  0  0
 243  0  0   7 201   0  0  0
 244  0  0  10 203 202 11  0
 245  2  0   0   0   0  0  0
 246  0 14   0   0   1  0  0
 247  1  0   0   0 204  0  0
 248  0  0  13 205   0  0  0
 249  0  0   5 207 206  9  0
 250  2  0   0   0   0  0  0
 251  0 22   0   0   1  0  0
 252  1  0   0   0 208  0  0
 253  0  0 122 209   0  0  0
 254  0  0 125 211 210 20  0
 255  2  0   0   0   0  0  0
 256  0  4   0   0   1  0  0
 257  1  0   0   0 212  0  0
 258  0  0  67 213   0  0  0
 259  0  0  27 215 214 19  0
 260  2  0   0   0   0  0  0
 261  0 21   0   0   1  0  0
 262  1  0   0   0 216  0  0
 263  0  0   3 217   0  0  0
 264  0  0   5 219 218 18  0
 265  2  0   0   0   0  0  0
 266  0 18   0   0   1  0  0
 267  1  0   0   0 220  0  0
 268  0  0  76 221   0  0  0
 269  0  0  79 223 222 15  0
 270  2  0   0   0   0  0  0
 271  0 10   0   0   1  0  0
 272  1  0   0   0 224  0  0
 273  0  0  40 225   0  0  0
 274  0  0  43 227 226  5  0
 275  2  0   0   0   0  0  0
 276  0 20   0   0   1  0  0
 277  1  0   0   0 228  0  0
 278  0  0  86 229   0  0  0
 279  0  0 146 231 230 17  0
 280  2  0   0   0   0  0  0
 281  0  9   0   0   1  0  0
 282  1  0   0   0 232  0  0
 283  0  0  52 233   0  0  0
 284  0  0  93 235 234  4  0
 285  2  0   0   0   0  0  0
 286  0 19   0   0   1  0  0
 287  1  0   0   0 236  0  0
 288  0  0  13 237   0  0  0
 289  0  0   5 239 238 16  0
 290  2  0   0   0   0  0  0
 291  0 18   0   0   1  0  0
 292  1  0   0   0 240  0  0
 293  0  0 100 241   0  0  0
 294  0  0  64 243 242 15  0
 295  2  0   0   0   0  0  0
 296  0  5   0   0   1  0  0
 297  1  0   0   0 244  0  0
 298  0  0  67 245   0  0  0
 299  0  0  43 247 246 14  0
 300  2  0   0   0   0  0  0
 301  0 17   0   0   1  0  0
 302  1  0   0   0 248  0  0
 303  0  0 249 250   0  0  0
 304  0  0 252 253 251 13  0
 305  2  0   0   0   0  0  0
 306  0 13   0   0   1  0  0
 307  1  0   0   0 254  0  0
 308  0  0   7 255   0  0  0
 309  0  0  10 257 256  8  0
 310  2  0   0   0   0  0  0
 311  0 16   0   0   1  0  0
 312  1  0   0   0 258  0  0
 313  0  0  13 259   0  0  0
 314  0  0   5 261 260 12  0
 315  2  0   0   0   0  0  0
 316  0 15   0   0   1  0  0
 317  1  0   0   0 262  0  0
 318  0  0  18 263   0  0  0
 319  0  0 125 265 264 11  0
 320  2  0   0   0   0  0  0
 321  0  1   0   0   1  0  0
 322  1  0   0   0 266  0  0
 323  0  0  24 267   0  0  0
 324  0  0  27 269 268 10  0
 325  2  0   0   0   0  0  0
 326  0 14   0   0   1  0  0
 327  1  0   0   0 270  0  0
 328  0  0   3 271   0  0  0
 329  0  0   5 273 272  9  0
 330  2  0   0   0   0  0  0
 331  0 13   0   0   1  0  0
 332  1  0   0   0 274  0  0
 333  0  0  34 275   0  0  0
 334  0  0  37 277 276  8  0
 335  2  0   0   0   0  0  0
 336  0 12   0   0   1  0  0
[RF]
1      85.1875 1 2 100 0 2.04204
2      85.1875 1 2 100 0 4.08407
3      85.1875 1 2 100 0 1.88496
4      85.1875 1 2 100 0 1.72788
5      85.1875 1 2 100 0 3.61283
6      85.1875 1 2 100 0 1.25664
7      85.1875 1 2 100 0 0.942478
8      85.1875 1 2 100 0 2.67035
9      85.1875 1 2 100 0 0.15708
10      85.1875 1 2 100 0 5.96903
11      85.1875 1 2 100 0 4.86947
12      85.1875 1 2 100 0 4.24115
13      85.1875 1 2 100 0 5.65487
14      85.1875 1 2 100 0 2.82743
15      85.1875 1 2 100 0 3.29867
16      85.1875 1 2 100 0 0.314159
17      85.1875 1 2 100 0 0.471239
18      85.1875 1 2 100 0 2.51327
19      85.1875 1 2 100 0 3.45575
20      85.1875 1 2 100 0 5.18363
21      85.1875 1 2 100 0 1.09956
22      85.1875 1 2 100 0 4.39823
23      85.1875 1 2 100 0 5.81195
24      85.1875 1 2 100 0 5.02655

# Format of trapezoid gradients:
# id amplitude rise flat fall delay
# ..      Hz/m   us   us   us    us
[TRAP]
 1      19531.2  10  400  10  90
 2 -1.40001e+06 220  140 220   0
 3 -2.08729e+06 340    0 340   0
 4      -724638 120  570 120 880
 5   1.6129e+06 260  800 260   0
 6 -1.38916e+06 220  140 220   0
 7 -2.08723e+06 340    0 340   0
 8     -15830.7 340    0 340   0
 9      -730299 120  570 120 880
10  1.61286e+06 260  800 260   0
11      12232.8 260  800 260   0
12 -1.34106e+06 210  160 210   0
13 -2.08728e+06 340    0 340   0
14     -6046.84 340    0 340   0
15      -735960 120  570 120 880
16      4672.56 260  800 260   0
17  -1.3305e+06 210  160 210   0
18 -2.08717e+06 340    0 340   0
19     -21877.3 340    0 340   0
20      -741621 120  570 120 880
21  1.61281e+06 260  800 260   0
22      16905.2 260  800 260   0
23 -1.31994e+06 210  160 210   0
24 -2.08725e+06 340    0 340   0
25     -12093.6 340    0 340   0
26      -747283 120  570 120 880
27  1.61288e+06 260  800 260   0
28      9345.08 260  800 260   0
29 -1.27493e+06 200  180 200   0
30     -2309.69 340    0 340   0
31      -752944 120  570 120 880
32      1784.76 260  800 260   0
33 -1.26465e+06 200  180 200   0
34 -2.08721e+06 340    0 340   0
35     -18140.3 340    0 340   0
36      -758605 120  570 120 880
37  1.61284e+06 260  800 260   0
38      14017.5 260  800 260   0
39 -1.25437e+06 200  180 200   0
40 -2.08727e+06 340    0 340   0
41     -8356.52 340    0 340   0
42      -764266 120  570 120 880
43  1.61289e+06 260  800 260   0
44      6457.31 260  800 260   0
45 -1.21219e+06 190  200 190   0
46 -2.08715e+06 340    0 340   0
47     -24186.9 340    0 340   0
48      -781250 130  550 130 880
49  1.61279e+06 260  800 260   0
50      18689.8 260  800 260   0
51 -1.20217e+06 190  200 190   0
52 -2.08724e+06 340    0 340   0
53     -14403.3 340    0 340   0
54      -786994 130  550 130 880
55      11129.8 260  800 260   0
56 -1.19216e+06 190  200 190   0
57     -4619.38 340    0 340   0
58      -792739 130  550 130 880
59      3569.52 260  800 260   0
60 -1.18214e+06 190  200 190   0
61 -2.08719e+06 340    0 340   0
62     -20449.9 340    0 340   0
63      -798483 130  550 130 880
64  1.61283e+06 260  800 260   0
65      15802.2 260  800 260   0
66 -1.14282e+06 180  220 180   0
67 -2.08726e+06 340    0 340   0
68     -10666.2 340    0 340   0
69      -804228 130  550 130 880
70      8242.05 260  800 260   0
71 -1.13306e+06 180  220 180   0
72     -882.223 340    0 340   0
73      -809972 130  550 130 880
74      681.718 260  800 260   0
75 -1.12329e+06 180  220 180   0
76 -2.08722e+06 340    0 340   0
77     -16712.9 340    0 340   0
78      -815717 130  550 130 880
79  1.61285e+06 260  800 260   0
80      12914.5 260  800 260   0
81 -1.11353e+06 180  220 180   0
82     -6929.06 340    0 340   0
83      -821461 130  550 130 880
84      5354.27 260  800 260   0
85 -1.07684e+06 170  240 170   0
86 -2.08716e+06 340    0 340   0
87     -22759.5 340    0 340   0
88      -827206 130  550 130 880
89      17586.9 260  800 260   0
90 -1.06731e+06 170  240 170   0
91     -12975.8 340    0 340   0
92      -845382 140  530 140 880
93  1.61287e+06 260  800 260   0
94      10026.8 260  800 260   0
95 -1.05778e+06 170  240 170   0
96     -3191.91 340    0 340   0
97      -851213 140  530 140 880
98      2466.48 260  800 260   0
99 -1.04826e+06 170  240 170   0
100  -2.0872e+06 340    0 340   0
101     -19022.5 340    0 340   0
102      -857043 140  530 140 880
103      14699.2 260  800 260   0
104   -1.014e+06 160  260 160   0
105     -9238.73 340    0 340   0
106      -862873 140  530 140 880
107      7139.02 260  800 260   0
108  -1.0047e+06 160  260 160   0
109 -2.08714e+06 340    0 340   0
110       -25069 340    0 340   0
111      -868703 140  530 140 880
112      19371.5 260  800 260   0
113      -995396 160  260 160   0
114     -15285.5 340    0 340   0
115      -874534 140  530 140 880
116      11811.5 260  800 260   0
117      -986096 160  260 160   0
118      -5501.6 340    0 340   0
119      -880364 140  530 140 880
120      4251.23 260  800 260   0
121      -954079 150  280 150   0
122 -2.08718e+06 340    0 340   0
123     -21332.1 340    0 340   0
124      -886194 140  530 140 880
125  1.61282e+06 260  800 260   0
126      16483.9 260  800 260   0
127      -944995 150  280 150   0
128     -11548.4 340    0 340   0
129      -892024 140  530 140 880
130      8923.76 260  800 260   0
131      -935910 150  280 150   0
132     -1764.45 340    0 340   0
133      -911458 150  510 150 880
134      1363.44 260  800 260   0
135      -926826 150  280 150   0
136     -17595.1 340    0 340   0
137      -917377 150  510 150 880
138      13596.2 260  800 260   0
139      -917742 150  280 150   0
140     -7811.28 340    0 340   0
141      -923295 150  510 150 880
142      6035.99 260  800 260   0
143      -888006 140  300 140   0
144     -23641.6 340    0 340   0
145      -929214 150  510 150 880
146   1.6128e+06 260  800 260   0
147      18268.5 260  800 260   0
148      -879128 140  300 140   0
149       -13858 340    0 340   0
150      -935133 150  510 150 880
151      10708.5 260  800 260   0
152      -870250 140  300 140   0
153     -4074.13 340    0 340   0
154      -941051 150  510 150 880
155      3148.19 260  800 260   0
156      -861373 140  300 140   0
157     -19904.7 340    0 340   0
158      -946970 150  510 150 880
159      15380.9 260  800 260   0
160      -852495 140  300 140   0
161     -10120.9 340    0 340   0
162      -952888 150  510 150 880
163      7820.73 260  800 260   0
164      -824870 130  320 130   0
165     -336.979 340    0 340   0
166      -973558 160  490 160 880
167      260.393 260  800 260   0
168      -816189 130  320 130   0
169     -16167.7 340    0 340   0
170      -979567 160  490 160 880
171      12493.2 260  800 260   0
172      -807509 130  320 130   0
173     -6383.82 340    0 340   0
174      -985577 160  490 160 880
175      4932.95 260  800 260   0
176      -798828 130  320 130   0
177     -22214.3 340    0 340   0
178      -991587 160  490 160 880
179      17165.6 260  800 260   0
180      -790148 130  320 130   0
181     -12430.6 340    0 340   0
182      -997596 160  490 160 880
183      9605.47 260  800 260   0
184      -764479 120  340 120   0
185     -2646.67 340    0 340   0
186 -1.00361e+06 160  490 160 880
187      2045.15 260  800 260   0
188      -755987 120  340 120   0
189     -18477.3 340    0 340   0
190 -1.00962e+06 160  490 160 880
191      14277.9 260  800 260   0
192      -747495 120  340 120   0
193     -8693.49 340    0 340   0
194 -1.01562e+06 160  490 160 880
195       6717.7 260  800 260   0
196      -739003 120  340 120   0
197     -24523.8 340    0 340   0
198 -1.02163e+06 160  490 160 880
199      18950.2 260  800 260   0
200      -730511 120  340 120   0
201     -14740.2 340    0 340   0
202  -1.0437e+06 170  470 170 880
203      11390.2 260  800 260   0
204      -722019 120  340 120   0
205     -4956.36 340    0 340   0
206  -1.0498e+06 170  470 170 880
207      3829.91 260  800 260   0
208      -698346 110  360 110   0
209     -20786.9 340    0 340   0
210 -1.05591e+06 170  470 170 880
211      16062.6 260  800 260   0
212      -690035 110  360 110   0
213     -11003.2 340    0 340   0
214 -1.06201e+06 170  470 170 880
215      8502.44 260  800 260   0
216      -681724 110  360 110   0
217      -1219.2 340    0 340   0
218 -1.06812e+06 170  470 170 880
219      942.111 260  800 260   0
220      -673413 110  360 110   0
221     -17049.9 340    0 340   0
222 -1.07422e+06 170  470 170 880
223      13174.9 260  800 260   0
224      -665101 110  360 110   0
225     -7266.04 340    0 340   0
226 -1.08032e+06 170  470 170 880
227      5614.66 260  800 260   0
228      -656790 110  360 110   0
229     -23096.4 340    0 340   0
230 -1.10367e+06 180  450 180 880
231      17847.2 260  800 260   0
232      -634969 100  380 100   0
233     -13312.8 340    0 340   0
234 -1.10987e+06 180  450 180 880
235      10287.2 260  800 260   0
236      -626831 100  380 100   0
237     -3528.89 340    0 340   0
238 -1.11607e+06 180  450 180 880
239      2726.87 260  800 260   0
240      -618693 100  380 100   0
241     -19359.5 340    0 340   0
242 -1.12227e+06 180  450 180 880
243      14959.6 260  800 260   0
244      -610555 100  380 100   0
245     -9575.71 340    0 340   0
246 -1.12847e+06 180  450 180 880
247      7399.41 260  800 260   0
248      -602417 100  380 100   0
249 -2.08713e+06 340    0 340   0
250       -25406 340    0 340   0
251 -1.13467e+06 180  450 180 880
252  1.61278e+06 260  800 260   0
253      19631.9 260  800 260   0
254      -594279 100  380 100   0
255     -15622.4 340    0 340   0
256 -1.14087e+06 180  450 180 880
257      12071.9 260  800 260   0
258      -574179  90  400  90   0
259     -5838.58 340    0 340   0
260 -1.14707e+06 180  450 180 880
261      4511.63 260  800 260   0
262      -566207  90  400  90   0
263       -21669 340    0 340   0
264 -1.17187e+06 190  430 190 880
265      16744.3 260  800 260   0
266      -558235  90  400  90   0
267     -11885.4 340    0 340   0
268 -1.17818e+06 190  430 190 880
269      9184.15 260  800 260   0
270      -550263  90  400  90   0
271     -2101.43 340    0 340   0
272 -1.18448e+06 190  430 190 880
273      1623.83 260  800 260   0
274      -542291  90  400  90   0
275     -17932.1 340    0 340   0
276 -1.19078e+06 190  430 190 880
277      13856.6 260  800 260   0
278      -534319  90  400  90   0
279     -8148.25 340    0 340   0
280 -1.19708e+06 190  430 190 880
281      6296.38 260  800 260   0
282      -526347  90  400  90   0
283     -23978.6 340    0 340   0
284 -1.20338e+06 190  430 190 880
285      18528.9 260  800 260   0
286      -508008  80  420  80   0
287       -14195 340    0 340   0
288 -1.20968e+06 190  430 190 880
289      10968.9 260  800 260   0
290      -500195  80  420  80   0
291     -4411.11 340    0 340   0
292 -1.23591e+06 200  410 200 880
293      3408.59 260  800 260   0
294      -492383  80  420  80   0
295     -20241.7 340    0 340   0
296 -1.24232e+06 200  410 200 880
297      15641.3 260  800 260   0
298      -484570  80  420  80   0
299     -10457.9 340    0 340   0
300 -1.24872e+06 200  410 200 880
301      8081.12 260  800 260   0
302      -476758  80  420  80   0
303     -673.959 340    0 340   0
304 -1.25512e+06 200  410 200 880
305      520.786 260  800 260   0
306      -468945  80  420  80   0
307     -16504.6 340    0 340   0
308 -1.26153e+06 200  410 200 880
309      12753.6 260  800 260   0
310      -461133  80  420  80   0
311      -6720.8 340    0 340   0
312 -1.26793e+06 200  410 200 880
313      5193.34 260  800 260   0
314      -444432  70  440  70   0
315     -22551.2 340    0 340   0
316 -1.27433e+06 200  410 200 880
317      17425.9 260  800 260   0
318      -436772  70  440  70   0
319     -12767.6 340    0 340   0
320 -1.30208e+06 210  390 210 880
321      9865.85 260  800 260   0
322      -429113  70  440  70   0
323     -2983.65 340    0 340   0
324 -1.30859e+06 210  390 210 880
325      2305.55 260  800 260   0
326      -421454  70  440  70   0
327     -18814.2 340    0 340   0
328  -1.3151e+06 210  390 210 880
329      14538.3 260  800 260   0
330      -413794  70  440  70   0
331     -9030.47 340    0 340   0
332 -1.32161e+06 210  390 210 880
333      6978.09 260  800 260   0
334      -406135  70  440  70   0
335     -24860.8 340    0 340   0
336 -1.32812e+06 210  390 210 880
337      19210.6 260  800 260   0
338      -398476  70  440  70   0
339     -15077.2 340    0 340   0
340 -1.33464e+06 210  390 210 880
341      11650.6 260  800 260   0
342      -390816  70  440  70   0
343     -5293.33 340    0 340   0
344 -1.36388e+06 220  370 220 880
345       4090.3 260  800 260   0
346      -375789  60  460  60   0
347     -21123.8 340    0 340   0
348  -1.3705e+06 220  370 220 880
349        16323 260  800 260   0
350      -368277  60  460  60   0
351     -11340.1 340    0 340   0
352 -1.37712e+06 220  370 220 880
353      8762.83 260  800 260   0
354      -360765  60  460  60   0
355     -1556.18 340    0 340   0
356 -1.38374e+06 220  370 220 880
357       1202.5 260  800 260   0
358      -353253  60  460  60   0
359     -17386.8 340    0 340   0
360 -1.39036e+06 220  370 220 880
361      13435.3 260  800 260   0
362      -345741  60  460  60   0
363     -7603.01 340    0 340   0
364 -1.39698e+06 220  370 220 880
365      5875.06 260  800 260   0
366      -338229  60  460  60   0
367     -23433.4 340    0 340   0
368  -1.4036e+06 220  370 220 880
369      18107.6 260  800 260   0
370      -330717  60  460  60   0
371     -13649.8 340    0 340   0
372 -1.43454e+06 230  350 230 880
373      10547.6 260  800 260   0
374      -317106  50  480  50   0
375     -3865.87 340    0 340   0
376 -1.44127e+06 230  350 230 880
377      2987.26 260  800 260   0
378      -309736  50  480  50   0
379     -19696.4 340    0 340   0
380 -1.44801e+06 230  350 230 880
381        15220 260  800 260   0
382      -302366  50  480  50   0
383     -9912.68 340    0 340   0
384 -1.45474e+06 230  350 230 880
385       7659.8 260  800 260   0
386      -294996  50  480  50   0
387     -128.715 340    0 340   0
388 -1.46148e+06 230  350 230 880
389      99.4613 260  800 260   0
390      -287625  50  480  50   0
391     -15959.4 340    0 340   0
392 -1.46821e+06 230  350 230 880
393      12332.3 260  800 260   0
394      -280255  50  480  50   0
395     -6175.55 340    0 340   0
396 -1.50082e+06 240  330 240 880
397      4772.02 260  800 260   0
398      -272885  50  480  50   0
399       -22006 340    0 340   0
400 -1.50768e+06 240  330 240 880
401      17004.6 260  800 260   0
402      -265514  50  480  50   0
403     -12222.3 340    0 340   0
404 -1.51453e+06 240  330 240 880
405      9444.54 260  800 260   0
406      -253364  40  500  40   0
407      -2438.4 340    0 340   0
408 -1.52138e+06 240  330 240 880
409      1884.22 260  800 260   0
410      -246130  40  500  40   0
411       -18269 340    0 340   0
412 -1.52823e+06 240  330 240 880
413        14117 260  800 260   0
414      -238896  40  500  40   0
415     -8485.23 340    0 340   0
416  -1.5625e+06 250  310 250 880
417      6556.77 260  800 260   0
418      -231662  40  500  40   0
419     -24315.6 340    0 340   0
420 -1.56948e+06 250  310 250 880
421      18789.3 260  800 260   0
422      -224429  40  500  40   0
423       -14532 340    0 340   0
424 -1.57645e+06 250  310 250 880
425      11229.3 260  800 260   0
426      -217195  40  500  40   0
427     -4748.09 340    0 340   0
428 -1.58343e+06 250  310 250 880
429      3668.98 260  800 260   0
430      -209961  40  500  40   0
431     -20578.6 340    0 340   0
432  -1.5904e+06 250  310 250 880
433      15901.7 260  800 260   0
434      -202727  40  500  40   0
435     -10794.9 340    0 340   0
436 -1.62642e+06 260  290 260 880
437      8341.51 260  800 260   0
438      -195493  40  500  40   0
439     -1010.94 340    0 340   0
440 -1.63352e+06 260  290 260 880
441      781.179 260  800 260   0
442      -184837  30  520  30   0
443     -16841.6 340    0 340   0
444 -1.64062e+06 260  290 260 880
445        13014 260  800 260   0
446      -177734  30  520  30   0
447     -7057.77 340    0 340   0
448 -1.64773e+06 260  290 260 880
449      5453.73 260  800 260   0
450      -170632  30  520  30   0
451     -22888.2 340    0 340   0
452 -1.65483e+06 260  290 260 880
453      17686.3 260  800 260   0
454      -163530  30  520  30   0
455     -13104.5 340    0 340   0
456 -1.69271e+06 270  270 270 880
457      10126.2 260  800 260   0
458      -156428  30  520  30   0
459     -3320.63 340    0 340   0
460 -1.69994e+06 270  270 270 880
461      2565.94 260  800 260   0
462      -149325  30  520  30   0
463     -19151.2 340    0 340   0
464 -1.70718e+06 270  270 270 880
465      14798.7 260  800 260   0
466      -142223  30  520  30   0
467     -9367.44 340    0 340   0
468 -1.71441e+06 270  270 270 880
469      7238.48 260  800 260   0
470      -135121  30  520  30   0
471     -25197.7 340    0 340   0
472 -1.72164e+06 270  270 270 880
473        19471 260  800 260   0
474      -125732  20  540  20   0
475     -15414.2 340    0 340   0
476  -1.7615e+06 280  250 280 880
477        11911 260  800 260   0
478      -118757  20  540  20   0
479     -5630.31 340    0 340   0
480 -1.76887e+06 280  250 280 880
481       4350.7 260  800 260   0
482      -111782  20  540  20   0
483     -21460.8 340    0 340   0
484 -1.77624e+06 280  250 280 880
485      16583.3 260  800 260   0
486      -104806  20  540  20   0
487     -11677.1 340    0 340   0
488 -1.78361e+06 280  250 280 880
489      9023.22 260  800 260   0
490     -97830.6  20  540  20   0
491     -1893.16 340    0 340   0
492 -1.82542e+06 290  230 290 880
493       1462.9 260  800 260   0
494     -90855.2  20  540  20   0
495     -17723.8 340    0 340   0
496 -1.83293e+06 290  230 290 880
497      13695.7 260  800 260   0
498     -83879.7  20  540  20   0
499     -7939.99 340    0 340   0
500 -1.84044e+06 290  230 290 880
501      6135.45 260  800 260   0
502     -76904.3  20  540  20   0
503     -23770.3 340    0 340   0
504 -1.84796e+06 290  230 290 880
505        18368 260  800 260   0
506     -69928.9  20  540  20   0
507     -13986.8 340    0 340   0
508 -1.89185e+06 300  210 300 880
509      10807.9 260  800 260   0
510       -61849  10  560  10   0
511     -4202.85 340    0 340   0
512 -1.89951e+06 300  210 300 880
513      3247.66 260  800 260   0
514     -54995.9  10  560  10   0
515     -20033.4 340    0 340   0
516 -1.90717e+06 300  210 300 880
517      15480.4 260  800 260   0
518     -48142.8  10  560  10   0
519     -10249.7 340    0 340   0
520 -1.91483e+06 300  210 300 880
521      7920.19 260  800 260   0
522     -41289.7  10  560  10   0
523     -465.694 340    0 340   0
524 -1.96094e+06 310  190 310 880
525      359.854 260  800 260   0
526     -34436.7  10  560  10   0
527     -16296.4 340    0 340   0
528 -1.96875e+06 310  190 310 880
529      12592.7 260  800 260   0
530     -27583.6  10  560  10   0
531     -6512.53 340    0 340   0
532 -1.97656e+06 310  190 310 880
533      5032.41 260  800 260   0
534     -20730.5  10  560  10   0
535       -22343 340    0 340   0
536 -2.02487e+06 320  170 320 880
537        17265 260  800 260   0
538     -13877.5  10  560  10   0
539     -12559.3 340    0 340   0
540 -2.03284e+06 320  170 320 880
541      9704.92 260  800 260   0
542      -7024.4  10  560  10   0
543     -2775.38 340    0 340   0
544  2.04082e+06 320  170 320 880
545      2144.61 260  800 260   0
546     -171.327  10  560  10   0
547       -18606 340    0 340   0
548  2.03284e+06 320  170 320 880
549      14377.4 260  800 260   0
550      6681.74  10  560  10   0
551     -8822.21 340    0 340   0
552  2.02487e+06 320  170 320 880
553      6817.16 260  800 260   0
554      13534.8  10  560  10   0
555     -24652.5 340    0 340   0
556  1.97656e+06 310  190 310 880
557      19049.7 260  800 260   0
558      20387.9  10  560  10   0
559       -14869 340    0 340   0
560  1.96875e+06 310  190 310 880
561      11489.6 260  800 260   0
562        27241  10  560  10   0
563     -5085.07 340    0 340   0
