# Pulseq sequence file
# Created by MATLAB mr toolbox

[VERSION]
major 1
minor 3
revision 1

[DEFINITIONS]
FOV 0.256 0.256 0.256 
Name 3D_radial_koosh-ball 
TotalDuration 1.4125 

# Format of blocks:
#  #  D RF  GX  GY  GZ ADC EXT
[BLOCKS]
   1  1  1   2   3   1  0  0
   2  2  0   4   5   6  0  0
   3  1  2   8   9   7  0  0
   4  2  0  10  11  12  0  0
   5  1  3  14  15  13  0  0
   6  2  0  16  17  18  0  0
   7  1  4  20  21  19  0  0
   8  2  0  22  23  24  0  0
   9  1  5  26  27  25  0  0
  10  2  0  28  29  30  0  0
  11  1  6  32  33  31  0  0
  12  2  0  34  35  36  1  0
  13  1  7  37  38  31  0  0
  14  2  0  39  40  36  2  0
  15  1  8  41  42  31  0  0
  16  2  0  43  44  36  3  0
  17  1  9  45  46  31  0  0
  18  2  0  47  48  36  4  0
  19  1 10  49  50  31  0  0
  20  2  0  51  52  36  5  0
  21  1  6  53  54  31  0  0
  22  2  0  55  56  36  1  0
  23  1 11  57  58  31  0  0
  24  2  0  59  60  36  6  0
  25  1 12  61  62  31  0  0
  26  2  0  63  64  36  7  0
  27  1 13  65  66  31  0  0
  28  2  0  67  68  36  8  0
  29  1 14  69  70  31  0  0
  30  2  0  71  72  36  9  0
  31  1  1  73  74  31  0  0
  32  2  0  75  76  36 10  0
  33  1 15  77  78  31  0  0
  34  2  0  79  80  36 11  0
  35  1 16  81  82  31  0  0
  36  2  0  83  84  36 12  0
  37  1 13  85  86  31  0  0
  38  2  0  87  88  36  8  0
  39  1 17  89  90  31  0  0
  40  2  0  91  92  36 13  0
  41  1  5  93  94  31  0  0
  42  2  0  95  96  36 14  0
  43  1 18  97  98  31  0  0
  44  2  0  99 100  36 15  0
  45  1 19 101 102  31  0  0
  46  2  0 103 104  36 16  0
  47  1  9 105 106  31  0  0
  48  2  0 107 108  36  4  0
  49  1 20 109 110  31  0  0
  50  2  0 111 112  36 17  0
  51  1 10 113 114  31  0  0
  52  2  0 115 116  36  5  0
  53  1 18 117 118  31  0  0
  54  2  0 119 120  36 15  0
  55  1 21 121 122  31  0  0
  56  2  0 123 124  36 18  0
  57  1  4 125 126  31  0  0
  58  2  0 127 128  36 19  0
  59  1 22 129 130  31  0  0
  60  2  0 131 132  36 20  0
  61  1 14 133 134  31  0  0
  62  2  0 135 136  36  9  0
  63  1 15 137 138  31  0  0
  64  2  0 139 140  36 11  0
  65  1 23 141 142  31  0  0
  66  2  0 143 144  36 21  0
  67  1  2 145 146  31  0  0
  68  2  0 147 148  36 22  0
  69  1 22 149 150  31  0  0
  70  2  0 151 152  36 20  0
  71  1 17 153 154  31  0  0
  72  2  0 155 156  36 13  0
  73  1 11 157 158  31  0  0
  74  2  0 159 160  36  6  0
  75  1 24 161 162  31  0  0
  76  2  0 163 164  36 23  0
  77  1  7 165 166  31  0  0
  78  2  0 167 168  36  2  0
  79  1 20 169 170  31  0  0
  80  2  0 171 172  36 17  0
  81  1 20 173 174  31  0  0
  82  2  0 175 176  36 17  0
  83  1  7 177 178  31  0  0
  84  2  0 179 180  36  2  0
  85  1 24 181 182  31  0  0
  86  2  0 183 184  36 23  0
  87  1 11 185 186  31  0  0
  88  2  0 187 188  36  6  0
  89  1 17 189 190  31  0  0
  90  2  0 191 192  36 13  0
  91  1 22 193 194  31  0  0
  92  2  0 195 196  36 20  0
  93  1  2 197 198  31  0  0
  94  2  0 199 200  36 22  0
  95  1 23 201 202  31  0  0
  96  2  0 203 204  36 21  0
  97  1 15 205 206  31  0  0
  98  2  0 207 208  36 11  0
  99  1 14 209 210  31  0  0
 100  2  0 211 212  36  9  0
 101  1 22 213 214  31  0  0
 102  2  0 215 216  36 20  0
 103  1  4 217 218  31  0  0
 104  2  0 219 220  36 19  0
 105  1 21 221 222  31  0  0
 106  2  0 223 224  36 18  0
 107  1 18 225 226  31  0  0
 108  2  0 227 228  36 15  0
 109  1 10 229 230  31  0  0
 110  2  0 231 232  36  5  0
 111  1 20 233 234  31  0  0
 112  2  0 235 236  36 17  0
 113  1  9 237 238  31  0  0
 114  2  0 239 240  36  4  0
 115  1 19 241 242  31  0  0
 116  2  0 243 244  36 16  0
 117  1 18 245 246  31  0  0
 118  2  0 247 248  36 15  0
 119  1  5 249 250  31  0  0
 120  2  0 251 252  36 14  0
 121  1 17 253 254  31  0  0
 122  2  0 255 256  36 13  0
 123  1 13 257 258  31  0  0
 124  2  0 259 260  36  8  0
 125  1 16 261 262  31  0  0
 126  2  0 263 264  36 12  0
 127  1 15 265 266  31  0  0
 128  2  0 267 268  36 11  0
 129  1  1 269 270  31  0  0
 130  2  0 271 272  36 10  0
 131  1 14 273 274  31  0  0
 132  2  0 275 276  36  9  0
 133  1 13 277 278  31  0  0
 134  2  0 279 280  36  8  0
 135  1 12 281 282  31  0  0
 136  2  0 283 284  36  7  0
 137  1 11 285 286  31  0  0
 138  2  0 287 288  36  6  0
 139  1  6 289 290  31  0  0
 140  2  0 291 292  36  1  0
 141  1 10 293 294  31  0  0
 142  2  0 295 296  36  5  0
 143  1  9 297 298  31  0  0
 144  2  0 299 300  36  4  0
 145  1  8 301 302  31  0  0
 146  2  0 303 304  36  3  0
 147  1  7 305 306  31  0  0
 148  2  0 307 308  36  2  0
 149  1  6 309 310  31  0  0
 150  2  0 311 312  36  1  0
 151  1  5 313 314  31  0  0
 152  2  0 315 316  36 14  0
 153  1  4 317 318  31  0  0
 154  2  0 319 320  36 19  0
 155  1  3 321 322  31  0  0
 156  2  0 323 324  36 24  0
 157  1  2 325 326  31  0  0
 158  2  0 327 328  36 22  0
 159  1  1 329 330  31  0  0
 160  2  0 331 332  36 10  0
 161  1  1 333 334  31  0  0
 162  2  0 335 336  36 10  0
 163  1  2 337 338  31  0  0
 164  2  0 339 340  36 22  0
 165  1  3 341 342  31  0  0
 166  2  0 343 344  36 24  0
 167  1  4 345 346  31  0  0
 168  2  0 347 348  36 19  0
 169  1  5 349 350  31  0  0
 170  2  0 351 352  36 14  0
 171  1  6 194  32  31  0  0
 172  2  0 196  34  36  1  0
 173  1  7 198  37  31  0  0
 174  2  0 200  39  36  2  0
 175  1  8 202  41  31  0  0
 176  2  0 204  43  36  3  0
 177  1  9 206  45  31  0  0
 178  2  0 208  47  36  4  0
 179  1 10 210  49  31  0  0
 180  2  0 212  51  36  5  0
 181  1  6 214  53  31  0  0
 182  2  0 216  55  36  1  0
 183  1 11 218  57  31  0  0
 184  2  0 220  59  36  6  0
 185  1 12 222  61  31  0  0
 186  2  0 224  63  36  7  0
 187  1 13 226  65  31  0  0
 188  2  0 228  67  36  8  0
 189  1 14 230  69  31  0  0
 190  2  0 232  71  36  9  0
 191  1  1 234  73  31  0  0
 192  2  0 236  75  36 10  0
 193  1 15 238  77  31  0  0
 194  2  0 240  79  36 11  0
 195  1 16 242  81  31  0  0
 196  2  0 244  83  36 12  0
 197  1 13 246  85  31  0  0
 198  2  0 248  87  36  8  0
 199  1 17 250  89  31  0  0
 200  2  0 252  91  36 13  0
 201  1  5 254  93  31  0  0
 202  2  0 256  95  36 14  0
 203  1 18 258  97  31  0  0
 204  2  0 260  99  36 15  0
 205  1 19 262 101  31  0  0
 206  2  0 264 103  36 16  0
 207  1  9 266 105  31  0  0
 208  2  0 268 107  36  4  0
 209  1 20 270 109  31  0  0
 210  2  0 272 111  36 17  0
 211  1 10 274 113  31  0  0
 212  2  0 276 115  36  5  0
 213  1 18 278 117  31  0  0
 214  2  0 280 119  36 15  0
 215  1 21 282 121  31  0  0
 216  2  0 284 123  36 18  0
 217  1  4 286 125  31  0  0
 218  2  0 288 127  36 19  0
 219  1 22 290 129  31  0  0
 220  2  0 292 131  36 20  0
 221  1 14 294 133  31  0  0
 222  2  0 296 135  36  9  0
 223  1 15 298 137  31  0  0
 224  2  0 300 139  36 11  0
 225  1 23 302 141  31  0  0
 226  2  0 304 143  36 21  0
 227  1  2 306 145  31  0  0
 228  2  0 308 147  36 22  0
 229  1 22 310 149  31  0  0
 230  2  0 312 151  36 20  0
 231  1 17 314 153  31  0  0
 232  2  0 316 155  36 13  0
 233  1 11 318 157  31  0  0
 234  2  0 320 159  36  6  0
 235  1 24 322 161  31  0  0
 236  2  0 324 163  36 23  0
 237  1  7 326 165  31  0  0
 238  2  0 328 167  36  2  0
 239  1 20 330 169  31  0  0
 240  2  0 332 171  36 17  0
 241  1 20 334 173  31  0  0
 242  2  0 336 175  36 17  0
 243  1  7 338 177  31  0  0
 244  2  0 340 179  36  2  0
 245  1 24 342 181  31  0  0
 246  2  0 344 183  36 23  0
 247  1 11 346 185  31  0  0
 248  2  0 348 187  36  6  0
 249  1 17 350 189  31  0  0
 250  2  0 352 191  36 13  0
 251  1 22 353 354   1  0  0
 252  2  0 355 356   6 20  0
 253  1  2 357 354   7  0  0
 254  2  0 358 356  12 22  0
 255  1 23 359 354  13  0  0
 256  2  0 360 356  18 21  0
 257  1 15 361 354  19  0  0
 258  2  0 362 356  24 11  0
 259  1 14 363 354  25  0  0
 260  2  0 364 356  30  9  0
 261  1 22 366 354 365  0  0
 262  2  0 367 356 368 20  0
 263  1  4 370 354 369  0  0
 264  2  0 371 356 372 19  0
 265  1 21 374 354 373  0  0
 266  2  0 375 356 376 18  0
 267  1 18 378 354 377  0  0
 268  2  0 379 356 380 15  0
 269  1 10 382 354 381  0  0
 270  2  0 383 356 384  5  0
 271  1 20 386 354 385  0  0
 272  2  0 387 356 388 17  0
 273  1  9 390 354 389  0  0
 274  2  0 391 356 392  4  0
 275  1 19 394 354 393  0  0
 276  2  0 395 356 396 16  0
 277  1 18 398 354 397  0  0
 278  2  0 399 356 400 15  0
 279  1  5 402 354 401  0  0
 280  2  0 403 356 404 14  0
 281  1 17 406 354 405  0  0
 282  2  0 407 356 408 13  0
 283  1 13 410 354 409  0  0
 284  2  0 411 356 412  8  0
 285  1 16 414 354 413  0  0
 286  2  0 415 356 416 12  0
 287  1 15 418 354 417  0  0
 288  2  0 419 356 420 11  0
 289  1  1 422 354 421  0  0
 290  2  0 423 356 424 10  0
 291  1 14 426 354 425  0  0
 292  2  0 427 356 428  9  0
 293  1 13 430 354 429  0  0
 294  2  0 431 356 432  8  0
 295  1 12 434 354 433  0  0
 296  2  0 435 356 436  7  0
 297  1 11 438 354 437  0  0
 298  2  0 439 356 440  6  0
 299  1  6 442 354 441  0  0
 300  2  0 443 356 444  1  0
 301  1 10 446 354 445  0  0
 302  2  0 447 356 448  5  0
 303  1  9 450 354 449  0  0
 304  2  0 451 356 452  4  0
 305  1  8 454 354 453  0  0
 306  2  0 455 356 456  3  0
 307  1  7 458 354 457  0  0
 308  2  0 459 356 460  2  0
 309  1  6 462 354 461  0  0
 310  2  0 463 356 464  1  0
 311  1  5 466 354 465  0  0
 312  2  0 467 356 468 14  0
 313  1  4 470 354 469  0  0
 314  2  0 471 356 472 19  0
 315  1  3 474 354 473  0  0
 316  2  0 475 356 476 24  0
 317  1  2 478 354 477  0  0
 318  2  0 479 356 480 22  0
 319  1  1 482 354 481  0  0
 320  2  0 483 356 484 10  0
 321  1  1 486 354 485  0  0
 322  2  0 487 356 488 10  0
 323  1  2 490 354 489  0  0
 324  2  0 491 356 492 22  0
 325  1  3 494 354 493  0  0
 326  2  0 495 356 496 24  0
 327  1  4 498 354 497  0  0
 328  2  0 499 356 500 19  0
 329  1  5 502 354 501  0  0
 330  2  0 503 356 504 14  0
 331  1  6 506 507 505  0  0
 332  2  0 508 509 510  1  0
 333  1  7 512 507 511  0  0
 334  2  0 513 509 514  2  0
 335  1  8 516 507 515  0  0
 336  2  0 517 509 518  3  0
[RF]
1      85.1875 1 2 100 0 2.04204
2      85.1875 1 2 100 0 4.08407
3      85.1875 1 2 100 0 1.88496
4      85.1875 1 2 100 0 1.72788
5      85.1875 1 2 100 0 3.61283
6      85.1875 1 2 100 0 1.25664
7      85.1875 1 2 100 0 0.942478
8      85.1875 1 2 100 0 2.67035
9      85.1875 1 2 100 0 0.15708
10      85.1875 1 2 100 0 5.96903
11      85.1875 1 2 100 0 4.86947
12      85.1875 1 2 100 0 4.24115
13      85.1875 1 2 100 0 5.65487
14      85.1875 1 2 100 0 2.82743
15      85.1875 1 2 100 0 3.29867
16      85.1875 1 2 100 0 0.314159
17      85.1875 1 2 100 0 0.471239
18      85.1875 1 2 100 0 2.51327
19      85.1875 1 2 100 0 3.45575
20      85.1875 1 2 100 0 5.18363
21      85.1875 1 2 100 0 1.09956
22      85.1875 1 2 100 0 4.39823
23      85.1875 1 2 100 0 5.81195
24      85.1875 1 2 100 0 5.02655

# Format of arbitrary gradients:
# id amplitude shape_id delay
# ..      Hz/m     ....    us
[GRADIENTS]
1       569109 3 90
7  1.51715e+06 4 90
13       477916 5 90
19    1.316e+06 6 90
25       389714 7 90
31      19531.3 8 90
365  1.13899e+06 9 90
369       299525 10 90
373  1.00091e+06 11 90
377       218244 12 90
381       873049 13 90
385       139464 14 90
389       754325 15 90
393      62130.4 16 90
397       655084 17 90
401  1.71992e+06 18 90
405       549785 19 90
409   1.4581e+06 20 90
413       458914 21 90
417  1.26483e+06 22 90
421       365039 23 90
425  1.11619e+06 24 90
429       281428 25 90
433       978981 26 90
437       200430 27 90
441       851936 28 90
445       120077 29 90
449       733966 30 90
453      45113.9 31 90
457       624132 32 90
461  1.65183e+06 33 90
465       530461 34 90
469  1.40161e+06 35 90
473       432701 36 90
477  1.24108e+06 37 90
481       346650 38 90
485  1.07195e+06 39 90
489       263331 40 90
493       938998 41 90
497       179806 42 90
501       815717 43 90
505       555536 44 90
511  1.46564e+06 45 90
515       464570 46 90
519   1.2719e+06 47 90
523       370512 48 90
527  1.12298e+06 49 90
531       286814 50 90
535       985506 51 90
539       205732 52 90
543       858220 53 90
547       125218 54 90
551       740026 55 90
555      50178.4 56 90
559       629982 57 90
563  1.65991e+06 58 90
567       536212 59 90
571   1.4403e+06 60 90
575       438264 61 90
579  1.24815e+06 62 90
583       352123 63 90
587   1.0786e+06 64 90
591       268717 65 90
595       945400 66 90
599       185027 67 90
603       821887 68 90
607       107944 69 90
611       719667 70 90
615      33161.9 71 90
619       610326 72 90
623  1.59479e+06 73 90
627       508274 74 90
631  1.38421e+06 75 90
635       419574 76 90
639  1.19941e+06 77 90
643       333734 78 90
647  1.05625e+06 79 90
651       246705 80 90
655       923889 81 90
659       167487 82 90
663       801158 83 90
667  1.33322e+06 84 90
669       419233 85 90
671  1.44458e+06 86 90
673       615028 87 90
675  1.52077e+06 88 90
677       780998 89 90
679  1.59118e+06 90 90
681       918725 91 90
683  1.65601e+06 92 90
685  1.04669e+06 93 90
687   1.7153e+06 94 90
689  1.14555e+06 95 90
691  1.76892e+06 96 90
693  1.26112e+06 97 90
695       189158 98 90
697  1.37496e+06 99 90
699       471933 100 90
701  1.45528e+06 101 90
703       658721 102 90
705  1.52953e+06 103 90
707       807324 104 90
709  1.63611e+06 105 90
711       940842 106 90
713  1.70156e+06 107 90
715  1.06571e+06 108 90
717  1.71848e+06 109 90
719  1.18546e+06 110 90
721   1.7702e+06 111 90
723  1.27522e+06 112 90
725       277483 113 90
727  1.38716e+06 114 90
729       521645 115 90
731  1.46546e+06 116 90
733       689499 117 90
735  1.57356e+06 118 90
737       847726 119 90
739  1.64268e+06 120 90
741       980477 121 90
743  1.70626e+06 122 90
745  1.08394e+06 123 90
1127       102803 124 90
1133       701088 125 90
1139      28097.4 126 90
1145       604475 127 90
1151   1.5869e+06 128 90
1157       502618 129 90
1163  1.37683e+06 130 90
1169       414011 131 90
1175  1.19248e+06 132 90
1181       328262 133 90
1187  1.04959e+06 134 90
1193       241403 135 90
1199       917487 136 90
1205       162266 137 90
1211       794988 138 90
1217      85528.3 139 90
1223       681086 140 90
1229      19531.3 141 90
1235       584818 142 90
1241  1.52492e+06 143 90
1247       483617 144 90
1253  1.32328e+06 145 90
1259       395321 146 90
1265  1.14583e+06 147 90
1271       304954 148 90
1277  1.00748e+06 149 90
1283       223588 150 90
1289       879383 151 90
1295       144726 152 90
1301       760433 153 90
1307        68254 154 90
1313       661084 155 90
1319  1.77147e+06 156 90
1325       555582 157 90
1331   1.4657e+06 158 90
1337       464615 159 90
1343  1.27196e+06 160 90
1349       370556 161 90
1355  1.12303e+06 162 90
1361       286857 163 90
1367       985558 164 90
1373       205774 165 90
1379       858270 166 90
1385       125259 167 90
1391       740074 168 90
1397      50218.8 169 90
1403       630029 170 90
1409  1.65997e+06 171 90
1415       536258 172 90
1421  1.44036e+06 173 90
1427       438308 174 90
1433   1.2482e+06 175 90
1439       352167 176 90
1445  1.07865e+06 177 90
1451       268760 178 90
1457       945452 179 90
1463       185069 180 90
1469       821936 181 90
1475       107985 182 90
1481       719715 183 90
1487      33202.3 184 90
1493       610372 185 90
1499  1.59485e+06 186 90
1505       508319 187 90
1511  1.38426e+06 188 90
1517       419618 189 90
1523  1.19946e+06 190 90
1529       333778 191 90
1535   1.0563e+06 192 90
1541       246747 193 90
1547       923940 194 90
1553       167528 195 90
1559       801207 196 90
1565      90710.6 197 90
1571       687087 198 90
1577      19531.3 199 90
1583       590715 200 90
1589  1.53269e+06 201 90
1595       489317 202 90
1601  1.33055e+06 203 90
1607       400928 204 90
1613   1.1762e+06 205 90
1619       310383 206 90
1625  1.01406e+06 207 90
1631       228933 208 90
1637       885717 209 90
1643       149988 210 90
1649       780478 211 90
1655      73436.3 212 90
1661       667085 213 90
1667  1.78002e+06 214 90
1673       561379 215 90
1679  1.50678e+06 216 90
1685       470316 217 90
1691   1.3063e+06 218 90
1697       376072 219 90
1703  1.12987e+06 220 90
1709       292286 221 90
1715       992136 222 90
1721       211119 223 90
1727       864604 224 90
1733       132448 225 90
1739       746182 226 90
1745      55323.8 227 90
1751       635926 228 90
1757   1.7088e+06 229 90
1763       542056 230 90
1769  1.44796e+06 231 90
1775       443915 232 90
1781  1.25533e+06 233 90
1787       357684 234 90
1793  1.08536e+06 235 90
1799       274189 236 90
1805       951905 237 90
1811       190331 238 90
1817       828155 239 90
1823       113167 240 90
1829       725823 241 90
1835      38307.3 242 90
1841       616269 243 90
1847  1.64097e+06 244 90
1853       522732 245 90
1859   1.3917e+06 246 90
1865       425225 247 90
1871  1.20644e+06 248 90
1877       339295 249 90
1883  1.06301e+06 250 90
1889       252091 251 90
1895       930394 252 90
1901       172790 253 90
1907       807426 254 90
1913      95892.9 255 90
1919       693087 256 90
1925      21290.8 257 90
1931       596612 258 90
1937  1.57629e+06 259 90
1943       495018 260 90
1949  1.33783e+06 261 90
1955       406535 262 90
1960  1.18318e+06 263 90
1966       315812 264 90
1972  1.02064e+06 265 90
1978       234277 266 90
1984       892051 267 90
1990       155250 268 90
1996       786696 269 90
2002      78618.6 270 90
2008       673085 271 90
2014  1.83443e+06 272 90
2020       567176 273 90
2026  1.51456e+06 274 90
2032       476016 275 90
2038  1.31357e+06 276 90
2044       381589 277 90
2050  1.13671e+06 278 90
2056       297715 279 90
2062       998713 280 90
2068       216463 281 90
2074       870938 282 90
2080       137710 283 90

# Format of trapezoid gradients:
# id amplitude rise flat fall delay
# ..      Hz/m   us   us   us    us
[TRAP]
 2       650575 280  120 280 510
 3  1.43605e+06 280  120 280 510
 4      -594404 260  790 260   0
 5 -1.31206e+06 260  790 260   0
 6       757813 260  790 260   0
 8       428191 280  120 280 510
 9      -488155 280  120 280 510
10      -391221 260  790 260   0
11       446007 260  790 260   0
12  1.51563e+06 260  790 260   0
14 -1.56468e+06 280  120 280 510
15      -474910 280  120 280 510
16  1.42959e+06 260  790 260   0
17       433906 260  790 260   0
18       645833 260  790 260   0
20       117521 280  120 280 510
21       894110 280  120 280 510
22      -107374 260  790 260   0
23      -816912 260  790 260   0
24  1.40365e+06 260  790 260   0
26  1.42932e+06 280  120 280 510
27      -888291 280  120 280 510
28 -1.30591e+06 260  790 260   0
29       811595 260  790 260   0
30       533854 260  790 260   0
32       735117 280  120 280 510
33  1.62266e+06 280  120 280 510
34      -671646 260  790 260   0
35 -1.48256e+06 260  790 260   0
36   9.9662e-11 260  790 260   0
37  1.17471e+06 280  120 280 510
38 -1.33921e+06 280  120 280 510
39 -1.07328e+06 260  790 260   0
40  1.22359e+06 260  790 260   0
41 -1.70462e+06 280  120 280 510
42      -517385 280  120 280 510
43  1.55745e+06 260  790 260   0
44       472713 260  790 260   0
45       232151 280  120 280 510
46  1.76622e+06 280  120 280 510
47      -212107 260  790 260   0
48 -1.61372e+06 260  790 260   0
49  1.51303e+06 280  120 280 510
50      -940311 280  120 280 510
51 -1.38239e+06 260  790 260   0
52       859124 260  790 260   0
53 -1.48088e+06 280  120 280 510
54      -990165 280  120 280 510
55  1.35302e+06 260  790 260   0
56       904674 260  790 260   0
57      -290828 280  120 280 510
58  1.75751e+06 280  120 280 510
59       265718 260  790 260   0
60 -1.60577e+06 260  790 260   0
61  1.72091e+06 280  120 280 510
62      -460343 280  120 280 510
63 -1.57232e+06 260  790 260   0
64       420596 260  790 260   0
65 -1.12947e+06 280  120 280 510
66 -1.37758e+06 280  120 280 510
67  1.03195e+06 260  790 260   0
68  1.25864e+06 260  790 260   0
69      -788735 280  120 280 510
70  1.59729e+06 280  120 280 510
71       720635 260  790 260   0
72 -1.45938e+06 260  790 260   0
73  1.78043e+06 280  120 280 510
74      59311.7 280  120 280 510
75  -1.6267e+06 260  790 260   0
76     -54190.6 260  790 260   0
77      -680683 280  120 280 510
78 -1.64624e+06 280  120 280 510
79       621912 260  790 260   0
80   1.5041e+06 260  790 260   0
81 -1.21864e+06 280  120 280 510
82  1.29936e+06 280  120 280 510
83  1.11343e+06 260  790 260   0
84 -1.18717e+06 260  790 260   0
85  1.68645e+06 280  120 280 510
86       573853 280  120 280 510
87 -1.54084e+06 260  790 260   0
88      -524306 260  790 260   0
89      -173217 280  120 280 510
90 -1.77297e+06 280  120 280 510
91       158261 260  790 260   0
92  1.61989e+06 260  790 260   0
93 -1.54349e+06 280  120 280 510
94       889414 280  120 280 510
95  1.41023e+06 260  790 260   0
96      -812621 260  790 260   0
97  1.44709e+06 280  120 280 510
98  1.03892e+06 280  120 280 510
99 -1.32215e+06 260  790 260   0
100      -949220 260  790 260   0
101       349183 280  120 280 510
102 -1.74686e+06 280  120 280 510
103      -319034 260  790 260   0
104  1.59603e+06 260  790 260   0
105 -1.73528e+06 280  120 280 510
106       402790 280  120 280 510
107  1.58545e+06 260  790 260   0
108      -368013 260  790 260   0
109  1.08297e+06 280  120 280 510
110  1.41442e+06 280  120 280 510
111      -989470 260  790 260   0
112  -1.2923e+06 260  790 260   0
113       841479 280  120 280 510
114 -1.57014e+06 280  120 280 510
115      -768825 260  790 260   0
116  1.43457e+06 260  790 260   0
117 -1.77746e+06 280  120 280 510
118      -118558 280  120 280 510
119    1.624e+06 260  790 260   0
120       108321 260  790 260   0
121       625494 280  120 280 510
122  1.66799e+06 280  120 280 510
123      -571489 260  790 260   0
124 -1.52397e+06 260  790 260   0
125  1.26123e+06 280  120 280 510
126 -1.25807e+06 280  120 280 510
127 -1.15234e+06 260  790 260   0
128  1.14944e+06 260  790 260   0
129 -1.66641e+06 280  120 280 510
130      -629685 280  120 280 510
131  1.52253e+06 260  790 260   0
132       575317 260  790 260   0
133       114090 280  120 280 510
134  1.77776e+06 280  120 280 510
135      -104239 260  790 260   0
136 -1.62426e+06 260  790 260   0
137  1.57225e+06 280  120 280 510
138      -837530 280  120 280 510
139  -1.4365e+06 260  790 260   0
140       765217 260  790 260   0
141  -1.4117e+06 280  120 280 510
142 -1.08653e+06 280  120 280 510
143  1.28981e+06 260  790 260   0
144       992715 260  790 260   0
145      -407150 280  120 280 510
146  1.73426e+06 280  120 280 510
147       371997 260  790 260   0
148 -1.58452e+06 260  790 260   0
149  1.74773e+06 280  120 280 510
150      -344791 280  120 280 510
151 -1.59683e+06 260  790 260   0
152       315022 260  790 260   0
153 -1.03528e+06 280  120 280 510
154  -1.4497e+06 280  120 280 510
155       945894 260  790 260   0
156  1.32453e+06 260  790 260   0
157      -893290 280  120 280 510
158  1.54125e+06 280  120 280 510
159       816163 260  790 260   0
160 -1.40818e+06 260  790 260   0
161  1.77253e+06 280  120 280 510
162       177672 280  120 280 510
163 -1.61949e+06 260  790 260   0
164      -162332 260  790 260   0
165      -569612 280  120 280 510
166 -1.68789e+06 280  120 280 510
167       520432 260  790 260   0
168  1.54216e+06 260  790 260   0
169 -1.30242e+06 280  120 280 510
170  1.21538e+06 280  120 280 510
171  1.18997e+06 260  790 260   0
172 -1.11044e+06 260  790 260   0
173  1.64452e+06 280  120 280 510
174       684818 280  120 280 510
175 -1.50253e+06 260  790 260   0
176      -625690 260  790 260   0
177     -54836.8 280  120 280 510
178 -1.78057e+06 280  120 280 510
179      50102.1 260  790 260   0
180  1.62683e+06 260  790 260   0
181 -1.59927e+06 280  120 280 510
182       784718 280  120 280 510
183  1.46118e+06 260  790 260   0
184      -716965 260  790 260   0
185  1.37474e+06 280  120 280 510
186  1.13293e+06 280  120 280 510
187 -1.25604e+06 260  790 260   0
188 -1.03511e+06 260  790 260   0
189       464666 280  120 280 510
190 -1.71974e+06 280  120 280 510
191      -424547 260  790 260   0
192  1.57126e+06 260  790 260   0
193      -735117 280  120 280 510
194 -1.62266e+06 280  120 280 510
195       671646 260  790 260   0
196  1.48256e+06 260  790 260   0
197 -1.17471e+06 280  120 280 510
198  1.33921e+06 280  120 280 510
199  1.07328e+06 260  790 260   0
200 -1.22359e+06 260  790 260   0
201  1.70462e+06 280  120 280 510
202       517385 280  120 280 510
203 -1.55745e+06 260  790 260   0
204      -472713 260  790 260   0
205      -232151 280  120 280 510
206 -1.76622e+06 280  120 280 510
207       212107 260  790 260   0
208  1.61372e+06 260  790 260   0
209 -1.51303e+06 280  120 280 510
210       940311 280  120 280 510
211  1.38239e+06 260  790 260   0
212      -859124 260  790 260   0
213  1.48088e+06 280  120 280 510
214       990165 280  120 280 510
215 -1.35302e+06 260  790 260   0
216      -904674 260  790 260   0
217       290828 280  120 280 510
218 -1.75751e+06 280  120 280 510
219      -265718 260  790 260   0
220  1.60577e+06 260  790 260   0
221 -1.72091e+06 280  120 280 510
222       460343 280  120 280 510
223  1.57232e+06 260  790 260   0
224      -420596 260  790 260   0
225  1.12947e+06 280  120 280 510
226  1.37758e+06 280  120 280 510
227 -1.03195e+06 260  790 260   0
228 -1.25864e+06 260  790 260   0
229       788735 280  120 280 510
230 -1.59729e+06 280  120 280 510
231      -720635 260  790 260   0
232  1.45938e+06 260  790 260   0
233 -1.78043e+06 280  120 280 510
234     -59311.7 280  120 280 510
235   1.6267e+06 260  790 260   0
236      54190.6 260  790 260   0
237       680683 280  120 280 510
238  1.64624e+06 280  120 280 510
239      -621912 260  790 260   0
240  -1.5041e+06 260  790 260   0
241  1.21864e+06 280  120 280 510
242 -1.29936e+06 280  120 280 510
243 -1.11343e+06 260  790 260   0
244  1.18717e+06 260  790 260   0
245 -1.68645e+06 280  120 280 510
246      -573853 280  120 280 510
247  1.54084e+06 260  790 260   0
248       524306 260  790 260   0
249       173217 280  120 280 510
250  1.77297e+06 280  120 280 510
251      -158261 260  790 260   0
252 -1.61989e+06 260  790 260   0
253  1.54349e+06 280  120 280 510
254      -889414 280  120 280 510
255 -1.41023e+06 260  790 260   0
256       812621 260  790 260   0
257 -1.44709e+06 280  120 280 510
258 -1.03892e+06 280  120 280 510
259  1.32215e+06 260  790 260   0
260       949220 260  790 260   0
261      -349183 280  120 280 510
262  1.74686e+06 280  120 280 510
263       319034 260  790 260   0
264 -1.59603e+06 260  790 260   0
265  1.73528e+06 280  120 280 510
266      -402790 280  120 280 510
267 -1.58545e+06 260  790 260   0
268       368013 260  790 260   0
269 -1.08297e+06 280  120 280 510
270 -1.41442e+06 280  120 280 510
271       989470 260  790 260   0
272   1.2923e+06 260  790 260   0
273      -841479 280  120 280 510
274  1.57014e+06 280  120 280 510
275       768825 260  790 260   0
276 -1.43457e+06 260  790 260   0
277  1.77746e+06 280  120 280 510
278       118558 280  120 280 510
279   -1.624e+06 260  790 260   0
280      -108321 260  790 260   0
281      -625494 280  120 280 510
282 -1.66799e+06 280  120 280 510
283       571489 260  790 260   0
284  1.52397e+06 260  790 260   0
285 -1.26123e+06 280  120 280 510
286  1.25807e+06 280  120 280 510
287  1.15234e+06 260  790 260   0
288 -1.14944e+06 260  790 260   0
289  1.66641e+06 280  120 280 510
290       629685 280  120 280 510
291 -1.52253e+06 260  790 260   0
292      -575317 260  790 260   0
293      -114090 280  120 280 510
294 -1.77776e+06 280  120 280 510
295       104239 260  790 260   0
296  1.62426e+06 260  790 260   0
297 -1.57225e+06 280  120 280 510
298       837530 280  120 280 510
299   1.4365e+06 260  790 260   0
300      -765217 260  790 260   0
301   1.4117e+06 280  120 280 510
302  1.08653e+06 280  120 280 510
303 -1.28981e+06 260  790 260   0
304      -992715 260  790 260   0
305       407150 280  120 280 510
306 -1.73426e+06 280  120 280 510
307      -371997 260  790 260   0
308  1.58452e+06 260  790 260   0
309 -1.74773e+06 280  120 280 510
310       344791 280  120 280 510
311  1.59683e+06 260  790 260   0
312      -315022 260  790 260   0
313  1.03528e+06 280  120 280 510
314   1.4497e+06 280  120 280 510
315      -945894 260  790 260   0
316 -1.32453e+06 260  790 260   0
317       893290 280  120 280 510
318 -1.54125e+06 280  120 280 510
319      -816163 260  790 260   0
320  1.40818e+06 260  790 260   0
321 -1.77253e+06 280  120 280 510
322      -177672 280  120 280 510
323  1.61949e+06 260  790 260   0
324       162332 260  790 260   0
325       569612 280  120 280 510
326  1.68789e+06 280  120 280 510
327      -520432 260  790 260   0
328 -1.54216e+06 260  790 260   0
329  1.30242e+06 280  120 280 510
330 -1.21538e+06 280  120 280 510
331 -1.18997e+06 260  790 260   0
332  1.11044e+06 260  790 260   0
333 -1.64452e+06 280  120 280 510
334      -684818 280  120 280 510
335  1.50253e+06 260  790 260   0
336       625690 260  790 260   0
337      54836.8 280  120 280 510
338  1.78057e+06 280  120 280 510
339     -50102.1 260  790 260   0
340 -1.62683e+06 260  790 260   0
341  1.59927e+06 280  120 280 510
342      -784718 280  120 280 510
343 -1.46118e+06 260  790 260   0
344       716965 260  790 260   0
345 -1.37474e+06 280  120 280 510
346 -1.13293e+06 280  120 280 510
347  1.25604e+06 260  790 260   0
348  1.03511e+06 260  790 260   0
349      -464666 280  120 280 510
350  1.71974e+06 280  120 280 510
351       424547 260  790 260   0
352 -1.57126e+06 260  790 260   0
353 -1.57654e+06 280  120 280 510
354           -0 280  120 280 510
355  1.44042e+06 260  790 260   0
356            0 260  790 260   0
357      -649340 280  120 280 510
358       593276 260  790 260   0
359 -1.63517e+06 280  120 280 510
360  1.49399e+06 260  790 260   0
361      -901800 280  120 280 510
362       823938 260  790 260   0
363 -1.68286e+06 280  120 280 510
364  1.53756e+06 260  790 260   0
366 -1.08388e+06 280  120 280 510
367       990299 260  790 260   0
