# Pulseq sequence file
# Created by MATLAB mr toolbox

[VERSION]
major 1
minor 3
revision 1

[DEFINITIONS]
FOV 0.256 0.256 0.256 
Name 3D_radial_stackOfStars 
TotalDuration 1.48379 

# Format of blocks:
#  #  D RF  GX  GY  GZ ADC EXT
[BLOCKS]
   1  0  1   2   0   1  0  0
   2  1  0   4   0   3  0  0
   3  0  2   6   7   5  0  0
   4  1  0   9  10   8  0  0
   5  0  3  12  13  11  0  0
   6  1  0  15  16  14  0  0
   7  0  4  18  19  17  0  0
   8  1  0  21  22  20  0  0
   9  0  5  24  25  23  0  0
  10  1  0  27  28  26  0  0
  11  0  6   2   0   1  0  0
  12  1  0   4   0   3  1  0
  13  0  7   6   7   5  0  0
  14  1  0   9  10   8  2  0
  15  0  8  12  13  11  0  0
  16  1  0  15  16  14  3  0
  17  0  9  18  19  17  0  0
  18  1  0  21  22  20  4  0
  19  0 10  24  25  23  0  0
  20  1  0  27  28  26  5  0
  21  0  6  30  31  29  0  0
  22  1  0  33  34  32  1  0
  23  0 11  36  37  35  0  0
  24  1  0  39  40  38  6  0
  25  0 12  42  43  41  0  0
  26  1  0  45  46  44  7  0
  27  0 13  48  49  47  0  0
  28  1  0  51  52  50  8  0
  29  0 14  54  55  53  0  0
  30  1  0  57  58  56  9  0
  31  0  1  60  61  59  0  0
  32  1  0  63  64  62 10  0
  33  0 15  66  67  65  0  0
  34  1  0  69  70  68 11  0
  35  0 16  72  73  71  0  0
  36  1  0  75  76  74 12  0
  37  0 13  78  79  77  0  0
  38  1  0  81  82  80  8  0
  39  0 17  84  85  83  0  0
  40  1  0  87  88  86 13  0
  41  0  5  90  91  89  0  0
  42  1  0  93  94  92 14  0
  43  0 18  96  97  95  0  0
  44  1  0  99 100  98 15  0
  45  0 19 102 103 101  0  0
  46  1  0 105 106 104 16  0
  47  0  9 108 109 107  0  0
  48  1  0 111 112 110  4  0
  49  0 20 114 115 113  0  0
  50  1  0 117 118 116 17  0
  51  0 10 120 121 119  0  0
  52  1  0 123 124 122  5  0
  53  0 18 126 127 125  0  0
  54  1  0 129 130 128 15  0
  55  0 21 132 133 131  0  0
  56  1  0 135 136 134 18  0
  57  0  4 138 139 137  0  0
  58  1  0 141 142 140 19  0
  59  0 22 144 145 143  0  0
  60  1  0 147 148 146 20  0
  61  0 14 150 151 149  0  0
  62  1  0 153 154 152  9  0
  63  0 15 156 157 155  0  0
  64  1  0 159 160 158 11  0
  65  0 23 162 163 161  0  0
  66  1  0 165 166 164 21  0
  67  0  2 168 169 167  0  0
  68  1  0 171 172 170 22  0
  69  0 22 174 175 173  0  0
  70  1  0 177 178 176 20  0
  71  0 17 180 181 179  0  0
  72  1  0 183 184 182 13  0
  73  0 11 186 187 185  0  0
  74  1  0 189 190 188  6  0
  75  0 24 192 193 191  0  0
  76  1  0 195 196 194 23  0
  77  0  7 198 199 197  0  0
  78  1  0 201 202 200  2  0
  79  0 20 204 205 203  0  0
  80  1  0 207 208 206 17  0
  81  0 20 210 211 209  0  0
  82  1  0 213 214 212 17  0
  83  0  7 216 217 215  0  0
  84  1  0 219 220 218  2  0
  85  0 24 222 223 221  0  0
  86  1  0 225 226 224 23  0
  87  0 11 228 229 227  0  0
  88  1  0 231 232 230  6  0
  89  0 17 234 235 233  0  0
  90  1  0 237 238 236 13  0
  91  0 22 240 241 239  0  0
  92  1  0 243 244 242 20  0
  93  0  2 246 247 245  0  0
  94  1  0 249 250 248 22  0
  95  0 23 252 253 251  0  0
  96  1  0 255 256 254 21  0
  97  0 15 258 259 257  0  0
  98  1  0 261 262 260 11  0
  99  0 14 264 265 263  0  0
 100  1  0 267 268 266  9  0
 101  0 22 270 271 269  0  0
 102  1  0 273 274 272 20  0
 103  0  4 276 277 275  0  0
 104  1  0 279 280 278 19  0
 105  0 21 282 283 281  0  0
 106  1  0 285 286 284 18  0
 107  0 18 288 289 287  0  0
 108  1  0 291 292 290 15  0
 109  0 10 294 295 293  0  0
 110  1  0 297 298 296  5  0
 111  0 20 300 301 299  0  0
 112  1  0 303 304 302 17  0
 113  0  9 306 307 305  0  0
 114  1  0 309 310 308  4  0
 115  0 19 312 313 311  0  0
 116  1  0 315 316 314 16  0
 117  0 18 318 319 317  0  0
 118  1  0 321 322 320 15  0
 119  0  5 324 325 323  0  0
 120  1  0 327 328 326 14  0
 121  0 17 330 331 329  0  0
 122  1  0 333 334 332 13  0
 123  0 13 336 337 335  0  0
 124  1  0 339 340 338  8  0
 125  0 16 342 343 341  0  0
 126  1  0 345 346 344 12  0
 127  0 15 348 349 347  0  0
 128  1  0 351 352 350 11  0
 129  0  1 354 355 353  0  0
 130  1  0 357 358 356 10  0
 131  0 14 360 361 359  0  0
 132  1  0 363 364 362  9  0
 133  0 13 366 367 365  0  0
 134  1  0 369 370 368  8  0
 135  0 12 372 373 371  0  0
 136  1  0 375 376 374  7  0
 137  0 11 378 379 377  0  0
 138  1  0 381 382 380  6  0
 139  0  6 384 385 383  0  0
 140  1  0 387 388 386  1  0
 141  0 10 390 391 389  0  0
 142  1  0 393 394 392  5  0
 143  0  9 396 397 395  0  0
 144  1  0 399 400 398  4  0
 145  0  8 402 403 401  0  0
 146  1  0 405 406 404  3  0
 147  0  7 408 409 407  0  0
 148  1  0 411 412 410  2  0
 149  0  6 414 415 413  0  0
 150  1  0 417 418 416  1  0
 151  0  5 420 421 419  0  0
 152  1  0 423 424 422 14  0
 153  0  4 426 427 425  0  0
 154  1  0 429 430 428 19  0
 155  0  3 432 433 431  0  0
 156  1  0 435 436 434 24  0
 157  0  2 438 439 437  0  0
 158  1  0 441 442 440 22  0
 159  0  1 444 445 443  0  0
 160  1  0 447 448 446 10  0
 161  0  1 450 451 449  0  0
 162  1  0 453 454 452 10  0
 163  0  2 456 457 455  0  0
 164  1  0 459 460 458 22  0
 165  0  3 462 463 461  0  0
 166  1  0 465 466 464 24  0
 167  0  4 468 469 467  0  0
 168  1  0 471 472 470 19  0
 169  0  5 474 475 473  0  0
 170  1  0 477 478 476 14  0
 171  0  6 480 481 479  0  0
 172  1  0 483 484 482  1  0
 173  0  7 486 487 485  0  0
 174  1  0 489 490 488  2  0
 175  0  8 492 493 491  0  0
 176  1  0 495 496 494  3  0
 177  0  9 498 499 497  0  0
 178  1  0 501 502 500  4  0
 179  0 10 504 505 503  0  0
 180  1  0 507 508 506  5  0
 181  0  6 510 511 509  0  0
 182  1  0 513 514 512  1  0
 183  0 11 516 517 515  0  0
 184  1  0 519 520 518  6  0
 185  0 12 522 523 521  0  0
 186  1  0 525 526 524  7  0
 187  0 13 528 529 527  0  0
 188  1  0 531 532 530  8  0
 189  0 14 534 535 533  0  0
 190  1  0 537 538 536  9  0
 191  0  1 540 541 539  0  0
 192  1  0 543 544 542 10  0
 193  0 15 546 547 545  0  0
 194  1  0 549 550 548 11  0
 195  0 16 552 553 551  0  0
 196  1  0 555 556 554 12  0
 197  0 13 558 559 557  0  0
 198  1  0 561 562 560  8  0
 199  0 17 564 565 563  0  0
 200  1  0 567 568 566 13  0
 201  0  5 570 571 569  0  0
 202  1  0 573 574 572 14  0
 203  0 18 576 577 575  0  0
 204  1  0 579 580 578 15  0
 205  0 19 582 583 581  0  0
 206  1  0 585 586 584 16  0
 207  0  9 588 589 587  0  0
 208  1  0 591 592 590  4  0
 209  0 20 594 595 593  0  0
 210  1  0 597 598 596 17  0
 211  0 10 600 601 599  0  0
 212  1  0 603 604 602  5  0
 213  0 18 606 607 605  0  0
 214  1  0 609 610 608 15  0
 215  0 21 612 613 611  0  0
 216  1  0 615 616 614 18  0
 217  0  4 618 619 617  0  0
 218  1  0 621 622 620 19  0
 219  0 22 624 625 623  0  0
 220  1  0 627 628 626 20  0
 221  0 14 630 631 629  0  0
 222  1  0 633 634 632  9  0
 223  0 15 636 637 635  0  0
 224  1  0 639 640 638 11  0
 225  0 23 642 643 641  0  0
 226  1  0 645 646 644 21  0
 227  0  2 648 649 647  0  0
 228  1  0 651 652 650 22  0
 229  0 22 654 655 653  0  0
 230  1  0 657 658 656 20  0
 231  0 17 660 661 659  0  0
 232  1  0 663 664 662 13  0
 233  0 11 666 667 665  0  0
 234  1  0 669 670 668  6  0
 235  0 24 672 673 671  0  0
 236  1  0 675 676 674 23  0
 237  0  7 678 679 677  0  0
 238  1  0 681 682 680  2  0
 239  0 20 684 685 683  0  0
 240  1  0 687 688 686 17  0
 241  0 20 690 691 689  0  0
 242  1  0 693 694 692 17  0
 243  0  7 696 697 695  0  0
 244  1  0 699 700 698  2  0
 245  0 24 702 703 701  0  0
 246  1  0 705 706 704 23  0
 247  0 11 708 709 707  0  0
 248  1  0 711 712 710  6  0
 249  0 17 714 715 713  0  0
 250  1  0 717 718 716 13  0
 251  0 22 720 721 719  0  0
 252  1  0 723 724 722 20  0
 253  0  2 726 727 725  0  0
 254  1  0 729 730 728 22  0
 255  0 23 732 733 731  0  0
 256  1  0 735 736 734 21  0
 257  0 15 738 739 737  0  0
 258  1  0 741 742 740 11  0
 259  0 14 744 745 743  0  0
 260  1  0 747 748 746  9  0
 261  0 22 750 751 749  0  0
 262  1  0 753 754 752 20  0
 263  0  4 756 757 755  0  0
 264  1  0 759 760 758 19  0
 265  0 21 762 763 761  0  0
 266  1  0 765 766 764 18  0
 267  0 18 768 769 767  0  0
 268  1  0 771 772 770 15  0
 269  0 10 774 775 773  0  0
 270  1  0 777 778 776  5  0
 271  0 20 780 781 779  0  0
 272  1  0 783 784 782 17  0
 273  0  9 786 787 785  0  0
 274  1  0 789 790 788  4  0
 275  0 19 792 793 791  0  0
 276  1  0 795 796 794 16  0
 277  0 18 798 799 797  0  0
 278  1  0 801 802 800 15  0
 279  0  5 804 805 803  0  0
 280  1  0 807 808 806 14  0
 281  0 17 810 811 809  0  0
 282  1  0 813 814 812 13  0
 283  0 13 816 817 815  0  0
 284  1  0 819 820 818  8  0
 285  0 16 822 823 821  0  0
 286  1  0 825 826 824 12  0
 287  0 15 828 829 827  0  0
 288  1  0 831 832 830 11  0
 289  0  1 834 835 833  0  0
 290  1  0 837 838 836 10  0
 291  0 14 840 841 839  0  0
 292  1  0 843 844 842  9  0
 293  0 13 846 847 845  0  0
 294  1  0 849 850 848  8  0
 295  0 12 852 853 851  0  0
 296  1  0 855 856 854  7  0
 297  0 11 858 859 857  0  0
 298  1  0 861 862 860  6  0
 299  0  6 864 865 863  0  0
 300  1  0 867 868 866  1  0
 301  0 10 870 871 869  0  0
 302  1  0 873 874 872  5  0
 303  0  9 876 877 875  0  0
 304  1  0 879 880 878  4  0
 305  0  8 882 883 881  0  0
 306  1  0 885 886 884  3  0
 307  0  7 888 889 887  0  0
 308  1  0 891 892 890  2  0
 309  0  6 894 895 893  0  0
 310  1  0 897 898 896  1  0
 311  0  5 900 901 899  0  0
 312  1  0 903 904 902 14  0
 313  0  4 906 907 905  0  0
 314  1  0 909 910 908 19  0
 315  0  3 912 913 911  0  0
 316  1  0 915 916 914 24  0
 317  0  2 918 919 917  0  0
 318  1  0 921 922 920 22  0
 319  0  1 924 925 923  0  0
 320  1  0 927 928 926 10  0
 321  0  1 930 931 929  0  0
 322  1  0 933 934 932 10  0
 323  0  2 936 937 935  0  0
 324  1  0 939 940 938 22  0
 325  0  3 942 943 941  0  0
 326  1  0 945 946 944 24  0
 327  0  4 948 949 947  0  0
 328  1  0 951 952 950 19  0
 329  0  5 954 955 953  0  0
 330  1  0 957 958 956 14  0
 331  0  6 960 961 959  0  0
 332  1  0 963 964 962  1  0
 333  0  7 966 967 965  0  0
 334  1  0 969 970 968  2  0
 335  0  8 972 973 971  0  0
 336  1  0 975 976 974  3  0
[RF]
1      85.1875 1 2 100 0 2.04204
2      85.1875 1 2 100 0 4.08407
3      85.1875 1 2 100 0 1.88496
4      85.1875 1 2 100 0 1.72788
5      85.1875 1 2 100 0 3.61283
6      85.1875 1 2 100 0 1.25664
7      85.1875 1 2 100 0 0.942478
8      85.1875 1 2 100 0 2.67035
9      85.1875 1 2 100 0 0.15708
10      85.1875 1 2 100 0 5.96903
11      85.1875 1 2 100 0 4.86947
12      85.1875 1 2 100 0 4.24115
13      85.1875 1 2 100 0 5.65487
14      85.1875 1 2 100 0 2.82743
15      85.1875 1 2 100 0 3.29867
16      85.1875 1 2 100 0 0.314159
17      85.1875 1 2 100 0 0.471239
18      85.1875 1 2 100 0 2.51327
19      85.1875 1 2 100 0 3.45575
20      85.1875 1 2 100 0 5.18363
21      85.1875 1 2 100 0 1.09956
22      85.1875 1 2 100 0 4.39823
23      85.1875 1 2 100 0 5.81195
24      85.1875 1 2 100 0 5.02655

# Format of arbitrary gradients:
# id amplitude shape_id delay
# ..      Hz/m     ....    us
[GRADIENTS]
1  1.40001e+06 3 90
5  1.38916e+06 4 90
11  1.34106e+06 5 90
17   1.3305e+06 6 90
23  1.31994e+06 7 90
29  1.27493e+06 8 90
35  1.26465e+06 9 90
41  1.25437e+06 10 90
47  1.21219e+06 11 90
53  1.20217e+06 12 90
59  1.19216e+06 13 90
65  1.18214e+06 14 90
71  1.14282e+06 15 90
77  1.13306e+06 16 90
83  1.12329e+06 17 90
89  1.11353e+06 18 90
95  1.07684e+06 19 90
101  1.06731e+06 20 90
107  1.05778e+06 21 90
113  1.04826e+06 22 90
119    1.014e+06 23 90
125   1.0047e+06 24 90
131       995396 25 90
137       986096 26 90
143       954079 27 90
149       944995 28 90
155       935910 29 90
161       926826 30 90
167       917742 31 90
173       888006 32 90
179       879128 33 90
185       870250 34 90
191       861373 35 90
197       852495 36 90
203       824870 37 90
209       816189 38 90
215       807509 39 90
221       798828 40 90
227       790148 41 90
233       764479 42 90
239       755987 43 90
245       747495 44 90
251       739003 45 90
257       730511 46 90
263       722019 47 90
269       698346 48 90
275       690035 49 90
281       681724 50 90
287       673413 51 90
293       665101 52 90
299       656790 53 90
305       634969 54 90
311       626831 55 90
317       618693 56 90
323       610555 57 90
329       602417 58 90
335       594279 59 90
341       574179 60 90
347       566207 61 90
353       558235 62 90
359       550263 63 90
365       542291 64 90
371       534319 65 90
377       526347 66 90
383       508008 67 90
389       500195 68 90
395       492383 69 90
401       484570 70 90
407       476758 71 90
413       468945 72 90
419       461133 73 90
425       444432 74 90
431       436772 75 90
437       429113 76 90
443       421454 77 90
449       413794 78 90
455       406135 79 90
461       398476 80 90
467       390816 81 90
473       375789 82 90
479       368277 83 90
485       360765 84 90
491       353253 85 90
497       345741 86 90
503       338229 87 90
509       330717 88 90
515       317106 89 90
521       309736 90 90
527       302366 91 90
533       294996 92 90
539       287625 93 90
545       280255 94 90
551       272885 95 90
557       265514 96 90
563       253364 97 90
569       246130 98 90
575       238896 99 90
581       231662 100 90
587       224429 101 90
593       217195 102 90
599       209961 103 90
605       202727 104 90
611       195493 105 90
617       184837 106 90
623       177734 107 90
629       170632 108 90
635       163530 109 90
641       156428 110 90
647       149325 111 90
653       142223 112 90
659       135121 113 90
665       125732 114 90
671       118757 115 90
677       111782 116 90
683       104806 117 90
689      97830.6 118 90
695      90855.2 119 90
701      83879.7 120 90
707      76904.3 121 90
713      69928.9 122 90
719        61849 123 90
725      54995.9 124 90
731      48142.8 125 90
737      41289.7 126 90
743      34436.7 127 90
749      27583.6 128 90
755      20730.5 129 90
761      19531.3 130 90
767      19531.3 131 90
773      19531.3 132 90
779      19531.3 133 90
785      19531.3 134 90
791      20387.9 135 90
797        27241 136 90
803        34094 137 90
809      40947.1 138 90
815      47800.2 139 90
821      54653.2 140 90
827      61506.3 141 90
833      69580.1 142 90
839      76555.5 143 90
845        83531 144 90
851      90506.4 145 90
857      97481.9 146 90
863       104457 147 90
869       111433 148 90
875       118408 149 90
881       125384 150 90
887       134766 151 90
893       141868 152 90
899       148970 153 90
905       156072 154 90
911       163175 155 90
917       170277 156 90
923       177379 157 90
929       184482 158 90
935       191584 159 90
941       202365 160 90
947       209599 161 90
953       216833 162 90
959       224067 163 90
965       231301 164 90
971       238534 165 90
977       245768 166 90
983       253002 167 90
989       265146 168 90
995       272516 169 90
1001       279886 170 90
1007       287257 171 90
1013       294627 172 90
1019       301997 173 90
1025       309368 174 90
1031       316738 175 90
1037       330341 176 90
1043       337853 177 90
1049       345365 178 90
1055       352877 179 90
1061       360389 180 90
1067       367901 181 90
1073       375413 182 90
1079       382925 183 90
1085       398093 184 90
1091       405752 185 90
1097       413411 186 90
1103       421071 187 90
1109       428730 188 90
1115       436389 189 90
1121       444049 190 90
1127       460742 191 90
1133       468555 192 90
1139       476367 193 90
1145       484180 194 90
1151       491992 195 90
1157       499805 196 90
1163       507617 197 90
1169       525949 198 90
1175       533921 199 90
1181       541893 200 90
1187       549864 201 90
1193       557836 202 90
1199       565808 203 90
1205       573780 204 90
1211       593872 205 90
1217       602010 206 90
1223       610148 207 90
1229       618286 208 90
1235       626424 209 90
1241       634562 210 90
1247       656375 211 90
1253       664686 212 90
1259       672997 213 90
1265       681308 214 90
1271       689619 215 90
1277       697931 216 90
1283       721595 217 90
1289       730087 218 90
1295       738578 219 90
1301       747070 220 90
1307       755562 221 90
1313       764054 222 90
1319       789714 223 90
1325       798394 224 90
1331       807075 225 90
1337       815755 226 90
1343       824436 227 90
1349       852051 228 90
1355       860929 229 90
1361       869806 230 90
1367       878684 231 90
1373       887562 232 90
1379       917287 233 90
1385       926372 234 90
1391       935456 235 90
1397       944540 236 90
1402       953625 237 90
1408       985631 238 90
1414       994931 239 90
1420  1.00423e+06 240 90
1426  1.01353e+06 241 90
1432  1.04778e+06 242 90
1438  1.05731e+06 243 90
1444  1.06683e+06 244 90
1450  1.07636e+06 245 90
1456  1.11304e+06 246 90
1462   1.1228e+06 247 90
1468  1.13257e+06 248 90
1474  1.14233e+06 249 90
1480  1.18164e+06 250 90
1486  1.19166e+06 251 90
1492  1.20167e+06 252 90
1498  1.21169e+06 253 90
1504  1.25385e+06 254 90
1510  1.26413e+06 255 90
1516  1.27441e+06 256 90
1522  1.31942e+06 257 90
1528  1.32997e+06 258 90

# Format of trapezoid gradients:
# id amplitude rise flat fall delay
# ..      Hz/m   us   us   us    us
[TRAP]
 2 -2.09578e+06 340    0 340 500
 3      -724638 120  570 120 880
 4   1.6276e+06 260  790 260   0
 6 -1.18335e+06 340    0 340 500
 7 -1.72973e+06 340    0 340 500
 8      -730299 120  570 120 880
 9       919002 260  790 260   0
10  1.34333e+06 260  790 260   0
12 -1.95333e+06 340    0 340 500
13      -759458 340    0 340 500
14      -735960 120  570 120 880
15  1.51698e+06 260  790 260   0
16       589803 260  790 260   0
18      -476109 340    0 340 500
19 -2.04098e+06 340    0 340 500
20      -741621 120  570 120 880
21       369751 260  790 260   0
22  1.58505e+06 260  790 260   0
24 -1.54536e+06 340    0 340 500
25 -1.41568e+06 340    0 340 500
26      -747283 120  570 120 880
27  1.20014e+06 260  790 260   0
28  1.09943e+06 260  790 260   0
30 -2.07479e+06 340    0 340 500
31      -295852 340    0 340 500
32      -752944 120  570 120 880
33  1.61131e+06 260  790 260   0
34       229762 260  790 260   0
36      -927322 340    0 340 500
37 -1.87946e+06 340    0 340 500
38      -758605 120  570 120 880
39       720168 260  790 260   0
40  1.45961e+06 260  790 260   0
42 -1.82656e+06 340    0 340 500
43  -1.0276e+06 340    0 340 500
44      -764266 120  570 120 880
45  1.41853e+06 260  790 260   0
46       798042 260  790 260   0
48      -183225 340    0 340 500
49 -2.08776e+06 340    0 340 500
50      -781250 130  550 130 880
51       142294 260  790 260   0
52  1.62137e+06 260  790 260   0
54 -1.33004e+06 340    0 340 500
55 -1.61965e+06 340    0 340 500
56      -786994 130  550 130 880
57  1.03292e+06 260  790 260   0
58  1.25784e+06 260  790 260   0
60 -2.01225e+06 340    0 340 500
61      -585778 340    0 340 500
62      -792739 130  550 130 880
63  1.56274e+06 260  790 260   0
64       454921 260  790 260   0
66      -652721 340    0 340 500
67 -1.99154e+06 340    0 340 500
68      -798483 130  550 130 880
69       506910 260  790 260   0
70  1.54665e+06 260  790 260   0
72 -1.66321e+06 340    0 340 500
73 -1.27515e+06 340    0 340 500
74      -804228 130  550 130 880
75  1.29167e+06 260  790 260   0
76       990298 260  790 260   0
78 -2.09271e+06 340    0 340 500
79      -113329 340    0 340 500
80      -809972 130  550 130 880
81  1.62522e+06 260  790 260   0
82      88012.3 260  790 260   0
84 -1.08808e+06 340    0 340 500
85 -1.79119e+06 340    0 340 500
86      -815717 130  550 130 880
87       845017 260  790 260   0
88  1.39106e+06 260  790 260   0
90 -1.90941e+06 340    0 340 500
91      -863973 340    0 340 500
92      -821461 130  550 130 880
93  1.48287e+06 260  790 260   0
94       670970 260  790 260   0
96      -365047 340    0 340 500
97 -2.06374e+06 340    0 340 500
98      -827206 130  550 130 880
99       283499 260  790 260   0
100  1.60272e+06 260  790 260   0
102 -1.46655e+06 340    0 340 500
103 -1.49717e+06 340    0 340 500
104      -845382 140  530 140 880
105  1.13894e+06 260  790 260   0
106  1.16272e+06 260  790 260   0
108 -2.05576e+06 340    0 340 500
109      -407613 340    0 340 500
110      -851213 140  530 140 880
111  1.59652e+06 260  790 260   0
112       316556 260  790 260   0
114      -824334 340    0 340 500
115 -1.92685e+06 340    0 340 500
116      -857043 140  530 140 880
117       640186 260  790 260   0
118  1.49641e+06 260  790 260   0
120 -1.76833e+06 340    0 340 500
121 -1.12486e+06 340    0 340 500
122      -862873 140  530 140 880
123   1.3733e+06 260  790 260   0
124       873581 260  790 260   0
126     -70062.2 340    0 340 500
127 -2.09461e+06 340    0 340 500
128      -868703 140  530 140 880
129        54411 260  790 260   0
130  1.62669e+06 260  790 260   0
132 -1.24051e+06 340    0 340 500
133 -1.68921e+06 340    0 340 500
134      -874534 140  530 140 880
135       963396 260  790 260   0
136  1.31185e+06 260  790 260   0
138 -1.97763e+06 340    0 340 500
139      -693733 340    0 340 500
140      -880364 140  530 140 880
141  1.53585e+06 260  790 260   0
142       538760 260  790 260   0
144      -544073 340    0 340 500
145 -2.02393e+06 340    0 340 500
146      -886194 140  530 140 880
147       422533 260  790 260   0
148   1.5718e+06 260  790 260   0
150 -1.59183e+06 340    0 340 500
151 -1.36323e+06 340    0 340 500
152      -892024 140  530 140 880
153  1.23623e+06 260  790 260   0
154   1.0587e+06 260  790 260   0
156 -2.08352e+06 340    0 340 500
157      -226326 340    0 340 500
158      -911458 150  510 150 880
159  1.61809e+06 260  790 260   0
160       175767 260  790 260   0
162      -989634 340    0 340 500
163 -1.84741e+06 340    0 340 500
164      -917377 150  510 150 880
165       768560 260  790 260   0
166  1.43472e+06 260  790 260   0
168  -1.8599e+06 340    0 340 500
169      -965960 340    0 340 500
170      -923295 150  510 150 880
171  1.44441e+06 260  790 260   0
172       750174 260  790 260   0
174      -252917 340    0 340 500
175 -2.08046e+06 340    0 340 500
176      -929214 150  510 150 880
177       196418 260  790 260   0
178  1.61571e+06 260  790 260   0
180 -1.38344e+06 340    0 340 500
181 -1.57429e+06 340    0 340 500
182      -935133 150  510 150 880
183   1.0744e+06 260  790 260   0
184  1.22261e+06 260  790 260   0
186 -2.03071e+06 340    0 340 500
187      -518181 340    0 340 500
188      -941051 150  510 150 880
189  1.57707e+06 260  790 260   0
190       402425 260  790 260   0
192      -718933 340    0 340 500
193 -1.96861e+06 340    0 340 500
194      -946970 150  510 150 880
195       558331 260  790 260   0
196  1.52884e+06 260  790 260   0
198 -1.70491e+06 340    0 340 500
199 -1.21884e+06 340    0 340 500
200      -952888 150  510 150 880
201  1.32405e+06 260  790 260   0
202       946564 260  790 260   0
204 -2.09533e+06 340    0 340 500
205     -43305.8 340    0 340 500
206      -973558 160  490 160 880
207  1.62726e+06 260  790 260   0
208      33631.7 260  790 260   0
210 -1.14736e+06 340    0 340 500
211 -1.75382e+06 340    0 340 500
212      -979567 160  490 160 880
213       891048 260  790 260   0
214  1.36203e+06 260  790 260   0
216 -1.93722e+06 340    0 340 500
217      -799658 340    0 340 500
218      -985577 160  490 160 880
219  1.50447e+06 260  790 260   0
220       621023 260  790 260   0
222      -433834 340    0 340 500
223 -2.05039e+06 340    0 340 500
224      -991587 160  490 160 880
225       336920 260  790 260   0
226  1.59235e+06 260  790 260   0
228 -1.51578e+06 340    0 340 500
229 -1.44731e+06 340    0 340 500
230      -997596 160  490 160 880
231  1.17717e+06 260  790 260   0
232    1.124e+06 260  790 260   0
234 -2.06824e+06 340    0 340 500
235      -338661 340    0 340 500
236 -1.00361e+06 160  490 160 880
237  1.60621e+06 260  790 260   0
238       263007 260  790 260   0
240      -888288 340    0 340 500
241 -1.89822e+06 340    0 340 500
242 -1.00962e+06 160  490 160 880
243       689854 260  790 260   0
244  1.47418e+06 260  790 260   0
246 -1.80494e+06 340    0 340 500
247 -1.06512e+06 340    0 340 500
248 -1.01562e+06 160  490 160 880
249  1.40174e+06 260  790 260   0
250       827183 260  790 260   0
252      -140046 340    0 340 500
253  -2.0911e+06 340    0 340 500
254 -1.02163e+06 160  490 160 880
255       108761 260  790 260   0
256  1.62397e+06 260  790 260   0
258 -1.29629e+06 340    0 340 500
259 -1.64679e+06 340    0 340 500
260  -1.0437e+06 170  470 170 880
261  1.00671e+06 260  790 260   0
262  1.27892e+06 260  790 260   0
264 -1.99972e+06 340    0 340 500
265      -627233 340    0 340 500
266  -1.0498e+06 170  470 170 880
267    1.553e+06 260  790 260   0
268       487116 260  790 260   0
270      -611429 340    0 340 500
271 -2.00461e+06 340    0 340 500
272 -1.05591e+06 170  470 170 880
273       474842 260  790 260   0
274   1.5568e+06 260  790 260   0
276 -1.63651e+06 340    0 340 500
277 -1.30925e+06 340    0 340 500
278 -1.06201e+06 170  470 170 880
279  1.27093e+06 260  790 260   0
280  1.01678e+06 260  790 260   0
282 -2.08992e+06 340    0 340 500
283      -156547 340    0 340 500
284 -1.06812e+06 170  470 170 880
285  1.62306e+06 260  790 260   0
286       121576 260  790 260   0
288 -1.05084e+06 340    0 340 500
289 -1.81329e+06 340    0 340 500
290 -1.07422e+06 170  470 170 880
291       816093 260  790 260   0
292  1.40822e+06 260  790 260   0
294 -1.89115e+06 340    0 340 500
295      -903243 340    0 340 500
296 -1.08032e+06 170  470 170 880
297  1.46869e+06 260  790 260   0
298       701468 260  790 260   0
300      -322325 340    0 340 500
301 -2.07085e+06 340    0 340 500
302 -1.10367e+06 180  450 180 880
303       250321 260  790 260   0
304  1.60824e+06 260  790 260   0
306  -1.4353e+06 340    0 340 500
307 -1.52716e+06 340    0 340 500
308 -1.10987e+06 180  450 180 880
309  1.11467e+06 260  790 260   0
310  1.18601e+06 260  790 260   0
312  -2.0469e+06 340    0 340 500
313      -450005 340    0 340 500
314 -1.11607e+06 180  450 180 880
315  1.58964e+06 260  790 260   0
316       349478 260  790 260   0
318      -784342 340    0 340 500
319 -1.94348e+06 340    0 340 500
320 -1.12227e+06 180  450 180 880
321       609128 260  790 260   0
322  1.50932e+06 260  790 260   0
324  -1.7447e+06 340    0 340 500
325 -1.16116e+06 340    0 340 500
326 -1.12847e+06 180  450 180 880
327  1.35496e+06 260  790 260   0
328       901771 260  790 260   0
330     -26765.6 340    0 340 500
331 -2.09561e+06 340    0 340 500
332 -1.13467e+06 180  450 180 880
333      20786.5 260  790 260   0
334  1.62747e+06 260  790 260   0
336 -1.20534e+06 340    0 340 500
337 -1.71448e+06 340    0 340 500
338 -1.14087e+06 180  450 180 880
339       936083 260  790 260   0
340  1.33148e+06 260  790 260   0
342 -1.96287e+06 340    0 340 500
343      -734450 340    0 340 500
344 -1.14707e+06 180  450 180 880
345  1.52439e+06 260  790 260   0
346       570381 260  790 260   0
348      -502136 340    0 340 500
349 -2.03474e+06 340    0 340 500
350 -1.17187e+06 190  430 190 880
351       389964 260  790 260   0
352   1.5802e+06 260  790 260   0
354 -1.56332e+06 340    0 340 500
355 -1.39583e+06 340    0 340 500
356 -1.17818e+06 190  430 190 880
357  1.21409e+06 260  790 260   0
358  1.08401e+06 260  790 260   0
360  -2.0784e+06 340    0 340 500
361      -269330 340    0 340 500
362 -1.18448e+06 190  430 190 880
363  1.61411e+06 260  790 260   0
364       209165 260  790 260   0
366      -951249 340    0 340 500
367 -1.86746e+06 340    0 340 500
368 -1.19078e+06 190  430 190 880
369       738750 260  790 260   0
370  1.45029e+06 260  790 260   0
372 -1.83954e+06 340    0 340 500
373 -1.00418e+06 340    0 340 500
374 -1.19708e+06 190  430 190 880
375  1.42861e+06 260  790 260   0
376       779860 260  790 260   0
378      -209873 340    0 340 500
379 -2.08524e+06 340    0 340 500
380 -1.20338e+06 190  430 190 880
381       162990 260  790 260   0
382  1.61942e+06 260  790 260   0
384 -1.35062e+06 340    0 340 500
385 -1.60254e+06 340    0 340 500
386 -1.20968e+06 190  430 190 880
387   1.0489e+06 260  790 260   0
388  1.24455e+06 260  790 260   0
390 -2.01957e+06 340    0 340 500
391      -560032 340    0 340 500
392 -1.23591e+06 200  410 200 880
393  1.56842e+06 260  790 260   0
394       434926 260  790 260   0
396      -678102 340    0 340 500
397 -1.98305e+06 340    0 340 500
398 -1.24232e+06 200  410 200 880
399       526621 260  790 260   0
400  1.54005e+06 260  790 260   0
402 -1.67936e+06 340    0 340 500
403 -1.25381e+06 340    0 340 500
404 -1.24872e+06 200  410 200 880
405  1.30421e+06 260  790 260   0
406       973721 260  790 260   0
408 -2.09399e+06 340    0 340 500
409     -86593.1 340    0 340 500
410 -1.25512e+06 200  410 200 880
411  1.62621e+06 260  790 260   0
412      67249.1 260  790 260   0
414 -1.11087e+06 340    0 340 500
415 -1.77715e+06 340    0 340 500
416 -1.26153e+06 200  410 200 880
417       862714 260  790 260   0
418  1.38015e+06 260  790 260   0
420 -1.92029e+06 340    0 340 500
421      -839517 340    0 340 500
422 -1.26793e+06 200  410 200 880
423  1.49132e+06 260  790 260   0
424       651978 260  790 260   0
426      -391374 340    0 340 500
427 -2.05891e+06 340    0 340 500
428 -1.27433e+06 200  410 200 880
429       303945 260  790 260   0
430  1.59897e+06 260  790 260   0
432 -1.48555e+06 340    0 340 500
433 -1.47832e+06 340    0 340 500
434 -1.30208e+06 210  390 210 880
435  1.15369e+06 260  790 260   0
436  1.14808e+06 260  790 260   0
438  -2.0608e+06 340    0 340 500
439      -381325 340    0 340 500
440 -1.30859e+06 210  390 210 880
441  1.60044e+06 260  790 260   0
442       296141 260  790 260   0
444      -848875 340    0 340 500
445 -1.91617e+06 340    0 340 500
446  -1.3151e+06 210  390 210 880
447       659245 260  790 260   0
448  1.48812e+06 260  790 260   0
450 -1.78255e+06 340    0 340 500
451 -1.10219e+06 340    0 340 500
452 -1.32161e+06 210  390 210 880
453  1.38434e+06 260  790 260   0
454       855971 260  790 260   0
456     -96807.1 340    0 340 500
457 -2.09354e+06 340    0 340 500
