# Pulseq sequence file
# Created by MATLAB mr toolbox

[VERSION]
major 1
minor 4
revision 0

[DEFINITIONS]
AdcRasterTime 1e-07 
BlockDurationRaster 1e-05 
FOV 0.256 0.256 0.256 
GradientRasterTime 1e-05 
Name NaN 
RadiofrequencyRasterTime 1e-06 

# Format of blocks:
# NUM DUR RF  GX  GY  GZ  ADC  EXT
[BLOCKS]
   1 120   1   2   3   1  0  0
   2 131   0   4   5   6  0  0
   3 120   2   8   9   7  0  0
   4 131   0  10  11  12  0  0
   5 120   3  14  15  13  0  0
   6 131   0  16  17  18  0  0
   7 120   4  20  21  19  0  0
   8 131   0  22  23  24  0  0
   9 120   5  26  27  25  0  0
  10 131   0  28  29  30  0  0
  11 120   6  32  33  31  0  0
  12 131   0  34  35  36  1  0
  13 120   7  37  38  31  0  0
  14 131   0  39  40  36  2  0
  15 120   8  41  42  31  0  0
  16 131   0  43  44  36  3  0
  17 120   9  45  46  31  0  0
  18 131   0  47  48  36  4  0
  19 120  10  49  50  31  0  0
  20 131   0  51  52  36  5  0
  21 120   6  53  54  31  0  0
  22 131   0  55  56  36  1  0
  23 120  11  57  58  31  0  0
  24 131   0  59  60  36  6  0
  25 120  12  61  62  31  0  0
  26 131   0  63  64  36  7  0
  27 120  13  65  66  31  0  0
  28 131   0  67  68  36  8  0
  29 120  14  69  70  31  0  0
  30 131   0  71  72  36  9  0
  31 120   1  73  74  31  0  0
  32 131   0  75  76  36 10  0
  33 120  15  77  78  31  0  0
  34 131   0  79  80  36 11  0
  35 120  16  81  82  31  0  0
  36 131   0  83  84  36 12  0
  37 120  13  85  86  31  0  0
  38 131   0  87  88  36  8  0
  39 120  17  89  90  31  0  0
  40 131   0  91  92  36 13  0
  41 120   5  93  94  31  0  0
  42 131   0  95  96  36 14  0
  43 120  18  97  98  31  0  0
  44 131   0  99 100  36 15  0
  45 120  19 101 102  31  0  0
  46 131   0 103 104  36 16  0
  47 120   9 105 106  31  0  0
  48 131   0 107 108  36  4  0
  49 120  20 109 110  31  0  0
  50 131   0 111 112  36 17  0
  51 120  10 113 114  31  0  0
  52 131   0 115 116  36  5  0
  53 120  18 117 118  31  0  0
  54 131   0 119 120  36 15  0
  55 120  21 121 122  31  0  0
  56 131   0 123 124  36 18  0
  57 120   4 125 126  31  0  0
  58 131   0 127 128  36 19  0
  59 120  22 129 130  31  0  0
  60 131   0 131 132  36 20  0
  61 120  14 133 134  31  0  0
  62 131   0 135 136  36  9  0
  63 120  15 137 138  31  0  0
  64 131   0 139 140  36 11  0
  65 120  23 141 142  31  0  0
  66 131   0 143 144  36 21  0
  67 120   2 145 146  31  0  0
  68 131   0 147 148  36 22  0
  69 120  22 149 150  31  0  0
  70 131   0 151 152  36 20  0
  71 120  17 153 154  31  0  0
  72 131   0 155 156  36 13  0
  73 120  11 157 158  31  0  0
  74 131   0 159 160  36  6  0
  75 120  24 161 162  31  0  0
  76 131   0 163 164  36 23  0
  77 120   7 165 166  31  0  0
  78 131   0 167 168  36  2  0
  79 120  20 169 170  31  0  0
  80 131   0 171 172  36 17  0
  81 120  20 173 174  31  0  0
  82 131   0 175 176  36 17  0
  83 120   7 177 178  31  0  0
  84 131   0 179 180  36  2  0
  85 120  24 181 182  31  0  0
  86 131   0 183 184  36 23  0
  87 120  11 185 186  31  0  0
  88 131   0 187 188  36  6  0
  89 120  17 189 190  31  0  0
  90 131   0 191 192  36 13  0
  91 120  22 193 194  31  0  0
  92 131   0 195 196  36 20  0
  93 120   2 197 198  31  0  0
  94 131   0 199 200  36 22  0
  95 120  23 201 202  31  0  0
  96 131   0 203 204  36 21  0
  97 120  15 205 206  31  0  0
  98 131   0 207 208  36 11  0
  99 120  14 209 210  31  0  0
 100 131   0 211 212  36  9  0
 101 120  22 213 214  31  0  0
 102 131   0 215 216  36 20  0
 103 120   4 217 218  31  0  0
 104 131   0 219 220  36 19  0
 105 120  21 221 222  31  0  0
 106 131   0 223 224  36 18  0
 107 120  18 225 226  31  0  0
 108 131   0 227 228  36 15  0
 109 120  10 229 230  31  0  0
 110 131   0 231 232  36  5  0
 111 120  20 233 234  31  0  0
 112 131   0 235 236  36 17  0
 113 120   9 237 238  31  0  0
 114 131   0 239 240  36  4  0
 115 120  19 241 242  31  0  0
 116 131   0 243 244  36 16  0
 117 120  18 245 246  31  0  0
 118 131   0 247 248  36 15  0
 119 120   5 249 250  31  0  0
 120 131   0 251 252  36 14  0
 121 120  17 253 254  31  0  0
 122 131   0 255 256  36 13  0
 123 120  13 257 258  31  0  0
 124 131   0 259 260  36  8  0
 125 120  16 261 262  31  0  0
 126 131   0 263 264  36 12  0
 127 120  15 265 266  31  0  0
 128 131   0 267 268  36 11  0
 129 120   1 269 270  31  0  0
 130 131   0 271 272  36 10  0
 131 120  14 273 274  31  0  0
 132 131   0 275 276  36  9  0
 133 120  13 277 278  31  0  0
 134 131   0 279 280  36  8  0
 135 120  12 281 282  31  0  0
 136 131   0 283 284  36  7  0
 137 120  11 285 286  31  0  0
 138 131   0 287 288  36  6  0
 139 120   6 289 290  31  0  0
 140 131   0 291 292  36  1  0
 141 120  10 293 294  31  0  0
 142 131   0 295 296  36  5  0
 143 120   9 297 298  31  0  0
 144 131   0 299 300  36  4  0
 145 120   8 301 302  31  0  0
 146 131   0 303 304  36  3  0
 147 120   7 305 306  31  0  0
 148 131   0 307 308  36  2  0
 149 120   6 309 310  31  0  0
 150 131   0 311 312  36  1  0
 151 120   5 313 314  31  0  0
 152 131   0 315 316  36 14  0
 153 120   4 317 318  31  0  0
 154 131   0 319 320  36 19  0
 155 120   3 321 322  31  0  0
 156 131   0 323 324  36 24  0
 157 120   2 325 326  31  0  0
 158 131   0 327 328  36 22  0
 159 120   1 329 330  31  0  0
 160 131   0 331 332  36 10  0
 161 120   1 333 334  31  0  0
 162 131   0 335 336  36 10  0
 163 120   2 337 338  31  0  0
 164 131   0 339 340  36 22  0
 165 120   3 341 342  31  0  0
 166 131   0 343 344  36 24  0
 167 120   4 345 346  31  0  0
 168 131   0 347 348  36 19  0
 169 120   5 349 350  31  0  0
 170 131   0 351 352  36 14  0
 171 120   6 194  32  31  0  0
 172 131   0 196  34  36  1  0
 173 120   7 198  37  31  0  0
 174 131   0 200  39  36  2  0
 175 120   8 202  41  31  0  0
 176 131   0 204  43  36  3  0
 177 120   9 206  45  31  0  0
 178 131   0 208  47  36  4  0
 179 120  10 210  49  31  0  0
 180 131   0 212  51  36  5  0
 181 120   6 214  53  31  0  0
 182 131   0 216  55  36  1  0
 183 120  11 218  57  31  0  0
 184 131   0 220  59  36  6  0
 185 120  12 222  61  31  0  0
 186 131   0 224  63  36  7  0
 187 120  13 226  65  31  0  0
 188 131   0 228  67  36  8  0
 189 120  14 230  69  31  0  0
 190 131   0 232  71  36  9  0
 191 120   1 234  73  31  0  0
 192 131   0 236  75  36 10  0
 193 120  15 238  77  31  0  0
 194 131   0 240  79  36 11  0
 195 120  16 242  81  31  0  0
 196 131   0 244  83  36 12  0
 197 120  13 246  85  31  0  0
 198 131   0 248  87  36  8  0
 199 120  17 250  89  31  0  0
 200 131   0 252  91  36 13  0
 201 120   5 254  93  31  0  0
 202 131   0 256  95  36 14  0
 203 120  18 258  97  31  0  0
 204 131   0 260  99  36 15  0
 205 120  19 262 101  31  0  0
 206 131   0 264 103  36 16  0
 207 120   9 266 105  31  0  0
 208 131   0 268 107  36  4  0
 209 120  20 270 109  31  0  0
 210 131   0 272 111  36 17  0
 211 120  10 274 113  31  0  0
 212 131   0 276 115  36  5  0
 213 120  18 278 117  31  0  0
 214 131   0 280 119  36 15  0
 215 120  21 282 121  31  0  0
 216 131   0 284 123  36 18  0
 217 120   4 286 125  31  0  0
 218 131   0 288 127  36 19  0
 219 120  22 290 129  31  0  0
 220 131   0 292 131  36 20  0
 221 120  14 294 133  31  0  0
 222 131   0 296 135  36  9  0
 223 120  15 298 137  31  0  0
 224 131   0 300 139  36 11  0
 225 120  23 302 141  31  0  0
 226 131   0 304 143  36 21  0
 227 120   2 306 145  31  0  0
 228 131   0 308 147  36 22  0
 229 120  22 310 149  31  0  0
 230 131   0 312 151  36 20  0
 231 120  17 314 153  31  0  0
 232 131   0 316 155  36 13  0
 233 120  11 318 157  31  0  0
 234 131   0 320 159  36  6  0
 235 120  24 322 161  31  0  0
 236 131   0 324 163  36 23  0
 237 120   7 326 165  31  0  0
 238 131   0 328 167  36  2  0
 239 120  20 330 169  31  0  0
 240 131   0 332 171  36 17  0
 241 120  20 334 173  31  0  0
 242 131   0 336 175  36 17  0
 243 120   7 338 177  31  0  0
 244 131   0 340 179  36  2  0
 245 120  24 342 181  31  0  0
 246 131   0 344 183  36 23  0
 247 120  11 346 185  31  0  0
 248 131   0 348 187  36  6  0
 249 120  17 350 189  31  0  0
 250 131   0 352 191  36 13  0
 251 120  22 353 354   1  0  0
 252 131   0 355 356   6 20  0
 253 120   2 357 354   7  0  0
 254 131   0 358 356  12 22  0
 255 120  23 359 354  13  0  0
 256 131   0 360 356  18 21  0
 257 120  15 361 354  19  0  0
 258 131   0 362 356  24 11  0
 259 120  14 363 354  25  0  0
 260 131   0 364 356  30  9  0
 261 120  22 366 354 365  0  0
 262 131   0 367 356 368 20  0
 263 120   4 370 354 369  0  0
 264 131   0 371 356 372 19  0
 265 120  21 374 354 373  0  0
 266 131   0 375 356 376 18  0
 267 120  18 378 354 377  0  0
 268 131   0 379 356 380 15  0
 269 120  10 382 354 381  0  0
 270 131   0 383 356 384  5  0
 271 120  20 386 354 385  0  0
 272 131   0 387 356 388 17  0
 273 120   9 390 354 389  0  0
 274 131   0 391 356 392  4  0
 275 120  19 394 354 393  0  0
 276 131   0 395 356 396 16  0
 277 120  18 398 354 397  0  0
 278 131   0 399 356 400 15  0
 279 120   5 402 354 401  0  0
 280 131   0 403 356 404 14  0
 281 120  17 406 354 405  0  0
 282 131   0 407 356 408 13  0
 283 120  13 410 354 409  0  0
 284 131   0 411 356 412  8  0
 285 120  16 414 354 413  0  0
 286 131   0 415 356 416 12  0
 287 120  15 418 354 417  0  0
 288 131   0 419 356 420 11  0
 289 120   1 422 354 421  0  0
 290 131   0 423 356 424 10  0
 291 120  14 426 354 425  0  0
 292 131   0 427 356 428  9  0
 293 120  13 430 354 429  0  0
 294 131   0 431 356 432  8  0
 295 120  12 434 354 433  0  0
 296 131   0 435 356 436  7  0
 297 120  11 438 354 437  0  0
 298 131   0 439 356 440  6  0
 299 120   6 442 354 441  0  0
 300 131   0 443 356 444  1  0
 301 120  10 446 354 445  0  0
 302 131   0 447 356 448  5  0
 303 120   9 450 354 449  0  0
 304 131   0 451 356 452  4  0
 305 120   8 454 354 453  0  0
 306 131   0 455 356 456  3  0
 307 120   7 458 354 457  0  0
 308 131   0 459 356 460  2  0
 309 120   6 462 354 461  0  0
 310 131   0 463 356 464  1  0
 311 120   5 466 354 465  0  0
 312 131   0 467 356 468 14  0
[RF]
1      85.1853 1 2 0 100 0 2.04204
2      85.1853 1 2 0 100 0 4.08407
3      85.1853 1 2 0 100 0 1.88496
4      85.1853 1 2 0 100 0 1.72788
5      85.1853 1 2 0 100 0 3.61283
6      85.1853 1 2 0 100 0 1.25664
7      85.1853 1 2 0 100 0 0.942478
8      85.1853 1 2 0 100 0 2.67035
9      85.1853 1 2 0 100 0 0.15708
10      85.1853 1 2 0 100 0 5.96903
11      85.1853 1 2 0 100 0 4.86947
12      85.1853 1 2 0 100 0 4.24115
13      85.1853 1 2 0 100 0 5.65487
14      85.1853 1 2 0 100 0 2.82743
15      85.1853 1 2 0 100 0 3.29867
16      85.1853 1 2 0 100 0 0.314159
17      85.1853 1 2 0 100 0 0.471239
18      85.1853 1 2 0 100 0 2.51327
19      85.1853 1 2 0 100 0 3.45575
20      85.1853 1 2 0 100 0 5.18363
21      85.1853 1 2 0 100 0 1.09956
22      85.1853 1 2 0 100 0 4.39823
23      85.1853 1 2 0 100 0 5.81195
24      85.1853 1 2 0 100 0 5.02655

# Format of arbitrary gradients:
#   time_shape_id of 0 means default timing (stepping with grad_raster starting at 1/2 of grad_raster)
# id amplitude amp_shape_id time_shape_id delay
# ..      Hz/m       ..         ..          us
[GRADIENTS]
1       569440 3 4 90
7  1.51759e+06 5 6 90
13       478242 7 8 90
19  1.31642e+06 9 10 90
25       390034 11 12 90
31      19531.2 13 14 90
365  1.13938e+06 15 16 90
369       299835 17 18 90
373  1.00128e+06 19 20 90
377       218549 21 22 90
381       873411 23 24 90
385       139765 25 26 90
389       754674 27 28 90
393      62421.9 29 14 90
397       655426 30 31 90
401   1.7204e+06 32 33 90
405       550116 34 4 90
409  1.45853e+06 35 36 90
413       459240 37 8 90
417  1.26524e+06 38 39 90
421       365354 40 41 90
425  1.11658e+06 42 16 90
429       281738 43 18 90
433       979356 44 20 90
437       200735 45 22 90
441       852298 46 24 90
445       120373 47 48 90
449       734315 49 28 90
453      45405.4 50 14 90
457       624469 51 52 90
461  1.65229e+06 53 54 90
465       530792 55 4 90
469  1.40204e+06 56 57 90
473       433021 58 12 90
477  1.24149e+06 59 39 90
481       346965 60 41 90
485  1.07233e+06 61 62 90
489       263641 63 18 90
493       939367 64 65 90
497       180107 66 26 90
501       816072 67 68 90
505       555205 69 4 90
511   1.4652e+06 70 36 90
515       464244 71 8 90
519  1.27149e+06 72 39 90
523       370197 73 41 90
527  1.12258e+06 74 16 90
531       286504 75 18 90
535       985131 76 20 90
539       205427 77 22 90
543       857858 78 24 90
547       124922 79 48 90
551       739677 80 28 90
555      49886.9 81 14 90
559       629646 82 52 90
563  1.65944e+06 83 54 90
567       535881 84 4 90
571  1.43987e+06 85 36 90
575       437944 86 12 90
579  1.24774e+06 87 39 90
583       351808 88 41 90
587  1.07822e+06 89 62 90
591       268407 90 18 90
595       945032 91 65 90
599       184726 92 26 90
603       821532 93 68 90
607       107648 94 48 90
611       719318 95 28 90
615      32870.4 96 14 90
619       609989 97 52 90
623  1.59433e+06 98 99 90
627       507948 100 8 90
631  1.38378e+06 101 57 90
635       419253 102 12 90
639  1.19901e+06 103 104 90
643       333419 105 41 90
647  1.05586e+06 106 62 90
651       246399 107 22 90
655       923521 108 65 90
659       167186 109 26 90
663       800803 110 68 90
667   1.3328e+06 111 10 90
669       418913 112 12 90
671  1.44415e+06 113 36 90
673       614691 114 52 90
675  1.52033e+06 115 6 90
677       780643 116 68 90
679  1.59073e+06 117 99 90
681       918357 118 65 90
683  1.65555e+06 119 54 90
685  1.04631e+06 120 62 90
687  1.71482e+06 121 33 90
689  1.14516e+06 122 16 90
691  1.76843e+06 123 124 90
693  1.26071e+06 125 39 90
695       188858 126 26 90
697  1.37453e+06 127 57 90
699       471607 128 8 90
701  1.45484e+06 129 36 90
703       658378 130 31 90
705  1.52908e+06 131 6 90
707       806969 132 68 90
709  1.63565e+06 133 54 90
711       940474 134 65 90
713  1.70109e+06 135 33 90
715  1.06533e+06 136 62 90
717    1.718e+06 137 33 90
719  1.18507e+06 138 104 90
721  1.76971e+06 139 124 90
723  1.27481e+06 140 39 90
725       277173 141 18 90
727  1.38673e+06 142 57 90
729       521314 143 4 90
731  1.46502e+06 144 36 90
733       689156 145 31 90
735   1.5731e+06 146 99 90
737       847364 147 24 90
739  1.64222e+06 148 54 90
741       980101 149 20 90
743  1.70578e+06 150 33 90
745  1.08356e+06 151 62 90
1127       103099 152 48 90
1133       701430 153 31 90
1139      28388.9 154 14 90
1145       604812 155 52 90
1151  1.58735e+06 156 99 90
1157       502944 157 8 90
1163  1.37725e+06 158 57 90
1169       414331 159 12 90
1175  1.19288e+06 160 104 90
1181       328577 161 41 90
1187  1.04998e+06 162 62 90
1193       241708 163 22 90
1199       917855 164 65 90
1205       162567 165 26 90
1211       795343 166 68 90
1217      85824.3 167 48 90
1223       681429 168 31 90
1229      19531.2 169 14 90
1235       585155 170 52 90
1241  1.52536e+06 171 6 90
1247       483942 172 8 90
1253  1.32369e+06 173 10 90
1259       395641 174 12 90
1265  1.14622e+06 175 16 90
1271       305264 176 18 90
1277  1.00786e+06 177 20 90
1283       223894 178 22 90
1289       879745 179 24 90
1295       145027 180 26 90
1301       760782 181 28 90
1307        68550 182 48 90
1313       661427 183 31 90
1319  1.77196e+06 184 124 90
1325       555913 185 4 90
1331  1.46613e+06 186 36 90
1337       464941 187 8 90
1343  1.27236e+06 188 39 90
1349       370871 189 41 90
1355  1.12342e+06 190 16 90
1361       287167 191 18 90
1367       985934 192 20 90
1373       206080 193 22 90
1379       858632 194 24 90
1385       125555 195 48 90
1391       740423 196 28 90
1397      50510.3 197 14 90
1403       630366 198 52 90
1409  1.66043e+06 199 54 90
1415       536589 200 4 90
1421   1.4408e+06 201 36 90
1427       438628 202 12 90
1433  1.24861e+06 203 39 90
1439       352482 204 41 90
1445  1.07904e+06 205 62 90
1451       269070 206 18 90
1457       945820 207 65 90
1463       185369 208 26 90
1469       822291 209 68 90
1475       108281 210 48 90
1481       720064 211 28 90
1487      33493.9 212 14 90
1493       610709 213 52 90
1499  1.59531e+06 214 99 90
1505       508645 215 8 90
1511  1.38469e+06 216 57 90
1517       419938 217 12 90
1523  1.19986e+06 218 104 90
1529       334093 219 41 90
1535  1.05668e+06 220 62 90
1541       247052 221 22 90
1547       924309 222 65 90
1553       167829 223 26 90
1559       801562 224 68 90
1565      91006.5 225 48 90
1571       687429 226 31 90
1577      19531.2 227 14 90
1583       591052 228 52 90
1589  1.56879e+06 229 99 90
1595       489643 230 8 90
1601  1.33097e+06 231 10 90
1607       401248 232 12 90
1613  1.17659e+06 233 104 90
1619       310693 234 18 90
1625  1.01444e+06 235 20 90
1631       229238 236 22 90
1637       886079 237 24 90
1643       150289 238 26 90
1649       780833 239 68 90
1655      73732.2 240 48 90
1661       667427 241 31 90
1667  1.78051e+06 242 124 90
1673       561710 243 4 90
1679  1.50723e+06 244 6 90
1685       470641 245 8 90
1691  1.30671e+06 246 10 90
1697       376387 247 41 90
1703  1.13026e+06 248 16 90
1709       292596 249 18 90
1715       992512 250 20 90
1721       211424 251 22 90
1727       864966 252 24 90
1733       132749 253 26 90
1739       746530 254 28 90
1745      55615.3 255 14 90
1751       636263 256 52 90
1757  1.70928e+06 257 33 90
1763       542387 258 4 90
1769   1.4484e+06 259 36 90
1775       444235 260 12 90
1781  1.25574e+06 261 39 90
1787       357999 262 41 90
1793  1.10746e+06 263 16 90
1799       274499 264 18 90
1805       952273 265 65 90
1811       190631 266 26 90
1817       828510 267 68 90
1823       113463 268 48 90
1829       726171 269 28 90
1835      38598.8 270 14 90
1841       616606 271 52 90
1847  1.64143e+06 272 54 90
1853       523063 273 4 90
1859  1.39212e+06 274 57 90
1865       425545 275 12 90
1871  1.20684e+06 276 104 90
1877       339610 277 41 90
1883  1.06339e+06 278 62 90
1889       252396 279 22 90
1895       930762 280 65 90
1901       173091 281 26 90
1907       807781 282 68 90
1913      96188.8 283 48 90
1919       693430 284 31 90
1925      21582.3 285 14 90
1931       596949 286 52 90
1937  1.57675e+06 287 99 90
1943       495343 288 8 90
1949  1.33825e+06 289 10 90
1955       406855 290 12 90
1960  1.18358e+06 291 104 90
1966       316122 292 18 90
1972  1.02101e+06 293 20 90
1978       234582 294 22 90
1984       892413 295 24 90
1990       155551 296 26 90
1996       787052 297 68 90
2002      78914.5 298 48 90
2008       673428 299 31 90
2014  1.83493e+06 300 301 90
2020       567508 302 4 90
2026    1.515e+06 303 6 90
2032       476342 304 8 90
2038  1.31399e+06 305 10 90
2044       381904 306 41 90
2050   1.1371e+06 307 16 90
2056       298025 308 18 90
2062       999089 309 20 90
2068       216768 310 22 90
2074       871300 311 24 90
2080       138011 312 26 90

# Format of trapezoid gradients:
# id amplitude rise flat fall delay
# ..      Hz/m   us   us   us    us
[TRAP]
 2       650575 280  120 280 520
 3  1.43605e+06 280  120 280 520
 4      -594404 260  790 260   0
 5 -1.31206e+06 260  790 260   0
 6       757813 260  790 260   0
 8       428191 280  120 280 520
 9      -488155 280  120 280 520
10      -391221 260  790 260   0
11       446007 260  790 260   0
12  1.51563e+06 260  790 260   0
14 -1.56468e+06 280  120 280 520
15      -474910 280  120 280 520
16  1.42959e+06 260  790 260   0
17       433906 260  790 260   0
18       645833 260  790 260   0
20       117521 280  120 280 520
21       894110 280  120 280 520
22      -107374 260  790 260   0
23      -816912 260  790 260   0
24  1.40365e+06 260  790 260   0
26  1.42932e+06 280  120 280 520
27      -888291 280  120 280 520
28 -1.30591e+06 260  790 260   0
29       811595 260  790 260   0
30       533854 260  790 260   0
32       735117 280  120 280 520
33  1.62266e+06 280  120 280 520
34      -671646 260  790 260   0
35 -1.48256e+06 260  790 260   0
36   9.9662e-11 260  790 260   0
37  1.17471e+06 280  120 280 520
38 -1.33921e+06 280  120 280 520
39 -1.07328e+06 260  790 260   0
40  1.22359e+06 260  790 260   0
41 -1.70462e+06 280  120 280 520
42      -517385 280  120 280 520
43  1.55745e+06 260  790 260   0
44       472713 260  790 260   0
45       232151 280  120 280 520
46  1.76622e+06 280  120 280 520
47      -212107 260  790 260   0
48 -1.61372e+06 260  790 260   0
49  1.51303e+06 280  120 280 520
50      -940311 280  120 280 520
51 -1.38239e+06 260  790 260   0
52       859124 260  790 260   0
53 -1.48088e+06 280  120 280 520
54      -990165 280  120 280 520
55  1.35302e+06 260  790 260   0
56       904674 260  790 260   0
57      -290828 280  120 280 520
58  1.75751e+06 280  120 280 520
59       265718 260  790 260   0
60 -1.60577e+06 260  790 260   0
61  1.72091e+06 280  120 280 520
62      -460343 280  120 280 520
63 -1.57232e+06 260  790 260   0
64       420596 260  790 260   0
65 -1.12947e+06 280  120 280 520
66 -1.37758e+06 280  120 280 520
67  1.03195e+06 260  790 260   0
68  1.25864e+06 260  790 260   0
69      -788735 280  120 280 520
70  1.59729e+06 280  120 280 520
71       720635 260  790 260   0
72 -1.45938e+06 260  790 260   0
73  1.78043e+06 280  120 280 520
74      59311.7 280  120 280 520
75  -1.6267e+06 260  790 260   0
76     -54190.6 260  790 260   0
77      -680683 280  120 280 520
78 -1.64624e+06 280  120 280 520
79       621912 260  790 260   0
80   1.5041e+06 260  790 260   0
81 -1.21864e+06 280  120 280 520
82  1.29936e+06 280  120 280 520
83  1.11343e+06 260  790 260   0
84 -1.18717e+06 260  790 260   0
85  1.68645e+06 280  120 280 520
86       573853 280  120 280 520
87 -1.54084e+06 260  790 260   0
88      -524306 260  790 260   0
89      -173217 280  120 280 520
90 -1.77297e+06 280  120 280 520
91       158261 260  790 260   0
92  1.61989e+06 260  790 260   0
93 -1.54349e+06 280  120 280 520
94       889414 280  120 280 520
95  1.41023e+06 260  790 260   0
96      -812621 260  790 260   0
97  1.44709e+06 280  120 280 520
98  1.03892e+06 280  120 280 520
99 -1.32215e+06 260  790 260   0
100      -949220 260  790 260   0
101       349183 280  120 280 520
102 -1.74686e+06 280  120 280 520
103      -319034 260  790 260   0
104  1.59603e+06 260  790 260   0
105 -1.73528e+06 280  120 280 520
106       402790 280  120 280 520
107  1.58545e+06 260  790 260   0
108      -368013 260  790 260   0
109  1.08297e+06 280  120 280 520
110  1.41442e+06 280  120 280 520
111      -989470 260  790 260   0
112  -1.2923e+06 260  790 260   0
113       841479 280  120 280 520
114 -1.57014e+06 280  120 280 520
115      -768825 260  790 260   0
116  1.43457e+06 260  790 260   0
117 -1.77746e+06 280  120 280 520
118      -118558 280  120 280 520
119    1.624e+06 260  790 260   0
120       108321 260  790 260   0
121       625494 280  120 280 520
122  1.66799e+06 280  120 280 520
123      -571489 260  790 260   0
124 -1.52397e+06 260  790 260   0
125  1.26123e+06 280  120 280 520
126 -1.25807e+06 280  120 280 520
127 -1.15234e+06 260  790 260   0
128  1.14944e+06 260  790 260   0
129 -1.66641e+06 280  120 280 520
130      -629685 280  120 280 520
131  1.52253e+06 260  790 260   0
132       575317 260  790 260   0
133       114090 280  120 280 520
134  1.77776e+06 280  120 280 520
135      -104239 260  790 260   0
136 -1.62426e+06 260  790 260   0
137  1.57225e+06 280  120 280 520
138      -837530 280  120 280 520
139  -1.4365e+06 260  790 260   0
140       765217 260  790 260   0
141  -1.4117e+06 280  120 280 520
142 -1.08653e+06 280  120 280 520
143  1.28981e+06 260  790 260   0
144       992715 260  790 260   0
145      -407150 280  120 280 520
146  1.73426e+06 280  120 280 520
147       371997 260  790 260   0
148 -1.58452e+06 260  790 260   0
149  1.74773e+06 280  120 280 520
150      -344791 280  120 280 520
151 -1.59683e+06 260  790 260   0
152       315022 260  790 260   0
153 -1.03528e+06 280  120 280 520
154  -1.4497e+06 280  120 280 520
155       945894 260  790 260   0
156  1.32453e+06 260  790 260   0
157      -893290 280  120 280 520
158  1.54125e+06 280  120 280 520
159       816163 260  790 260   0
160 -1.40818e+06 260  790 260   0
161  1.77253e+06 280  120 280 520
162       177672 280  120 280 520
163 -1.61949e+06 260  790 260   0
164      -162332 260  790 260   0
165      -569612 280  120 280 520
166 -1.68789e+06 280  120 280 520
167       520432 260  790 260   0
168  1.54216e+06 260  790 260   0
169 -1.30242e+06 280  120 280 520
170  1.21538e+06 280  120 280 520
171  1.18997e+06 260  790 260   0
172 -1.11044e+06 260  790 260   0
173  1.64452e+06 280  120 280 520
174       684818 280  120 280 520
175 -1.50253e+06 260  790 260   0
176      -625690 260  790 260   0
177     -54836.8 280  120 280 520
178 -1.78057e+06 280  120 280 520
179      50102.1 260  790 260   0
180  1.62683e+06 260  790 260   0
181 -1.59927e+06 280  120 280 520
182       784718 280  120 280 520
183  1.46118e+06 260  790 260   0
184      -716965 260  790 260   0
185  1.37474e+06 280  120 280 520
186  1.13293e+06 280  120 280 520
187 -1.25604e+06 260  790 260   0
188 -1.03511e+06 260  790 260   0
189       464666 280  120 280 520
190 -1.71974e+06 280  120 280 520
191      -424547 260  790 260   0
192  1.57126e+06 260  790 260   0
193      -735117 280  120 280 520
194 -1.62266e+06 280  120 280 520
195       671646 260  790 260   0
196  1.48256e+06 260  790 260   0
197 -1.17471e+06 280  120 280 520
198  1.33921e+06 280  120 280 520
199  1.07328e+06 260  790 260   0
200 -1.22359e+06 260  790 260   0
201  1.70462e+06 280  120 280 520
202       517385 280  120 280 520
203 -1.55745e+06 260  790 260   0
204      -472713 260  790 260   0
205      -232151 280  120 280 520
206 -1.76622e+06 280  120 280 520
207       212107 260  790 260   0
208  1.61372e+06 260  790 260   0
209 -1.51303e+06 280  120 280 520
210       940311 280  120 280 520
211  1.38239e+06 260  790 260   0
212      -859124 260  790 260   0
213  1.48088e+06 280  120 280 520
214       990165 280  120 280 520
215 -1.35302e+06 260  790 260   0
216      -904674 260  790 260   0
217       290828 280  120 280 520
218 -1.75751e+06 280  120 280 520
219      -265718 260  790 260   0
220  1.60577e+06 260  790 260   0
221 -1.72091e+06 280  120 280 520
222       460343 280  120 280 520
223  1.57232e+06 260  790 260   0
224      -420596 260  790 260   0
225  1.12947e+06 280  120 280 520
226  1.37758e+06 280  120 280 520
227 -1.03195e+06 260  790 260   0
228 -1.25864e+06 260  790 260   0
229       788735 280  120 280 520
230 -1.59729e+06 280  120 280 520
231      -720635 260  790 260   0
232  1.45938e+06 260  790 260   0
233 -1.78043e+06 280  120 280 520
234     -59311.7 280  120 280 520
235   1.6267e+06 260  790 260   0
236      54190.6 260  790 260   0
237       680683 280  120 280 520
238  1.64624e+06 280  120 280 520
239      -621912 260  790 260   0
240  -1.5041e+06 260  790 260   0
241  1.21864e+06 280  120 280 520
242 -1.29936e+06 280  120 280 520
243 -1.11343e+06 260  790 260   0
244  1.18717e+06 260  790 260   0
245 -1.68645e+06 280  120 280 520
246      -573853 280  120 280 520
247  1.54084e+06 260  790 260   0
248       524306 260  790 260   0
249       173217 280  120 280 520
250  1.77297e+06 280  120 280 520
251      -158261 260  790 260   0
252 -1.61989e+06 260  790 260   0
253  1.54349e+06 280  120 280 520
254      -889414 280  120 280 520
255 -1.41023e+06 260  790 260   0
256       812621 260  790 260   0
257 -1.44709e+06 280  120 280 520
258 -1.03892e+06 280  120 280 520
259  1.32215e+06 260  790 260   0
260       949220 260  790 260   0
261      -349183 280  120 280 520
262  1.74686e+06 280  120 280 520
263       319034 260  790 260   0
264 -1.59603e+06 260  790 260   0
265  1.73528e+06 280  120 280 520
266      -402790 280  120 280 520
267 -1.58545e+06 260  790 260   0
268       368013 260  790 260   0
269 -1.08297e+06 280  120 280 520
270 -1.41442e+06 280  120 280 520
271       989470 260  790 260   0
272   1.2923e+06 260  790 260   0
273      -841479 280  120 280 520
274  1.57014e+06 280  120 280 520
275       768825 260  790 260   0
276 -1.43457e+06 260  790 260   0
277  1.77746e+06 280  120 280 520
278       118558 280  120 280 520
279   -1.624e+06 260  790 260   0
280      -108321 260  790 260   0
281      -625494 280  120 280 520
282 -1.66799e+06 280  120 280 520
283       571489 260  790 260   0
284  1.52397e+06 260  790 260   0
285 -1.26123e+06 280  120 280 520
286  1.25807e+06 280  120 280 520
287  1.15234e+06 260  790 260   0
288 -1.14944e+06 260  790 260   0
289  1.66641e+06 280  120 280 520
290       629685 280  120 280 520
291 -1.52253e+06 260  790 260   0
292      -575317 260  790 260   0
293      -114090 280  120 280 520
294 -1.77776e+06 280  120 280 520
295       104239 260  790 260   0
296  1.62426e+06 260  790 260   0
297 -1.57225e+06 280  120 280 520
298       837530 280  120 280 520
299   1.4365e+06 260  790 260   0
300      -765217 260  790 260   0
301   1.4117e+06 280  120 280 520
302  1.08653e+06 280  120 280 520
303 -1.28981e+06 260  790 260   0
304      -992715 260  790 260   0
305       407150 280  120 280 520
306 -1.73426e+06 280  120 280 520
307      -371997 260  790 260   0
308  1.58452e+06 260  790 260   0
309 -1.74773e+06 280  120 280 520
310       344791 280  120 280 520
311  1.59683e+06 260  790 260   0
312      -315022 260  790 260   0
313  1.03528e+06 280  120 280 520
314   1.4497e+06 280  120 280 520
315      -945894 260  790 260   0
316 -1.32453e+06 260  790 260   0
317       893290 280  120 280 520
318 -1.54125e+06 280  120 280 520
319      -816163 260  790 260   0
320  1.40818e+06 260  790 260   0
321 -1.77253e+06 280  120 280 520
322      -177672 280  120 280 520
323  1.61949e+06 260  790 260   0
324       162332 260  790 260   0
325       569612 280  120 280 520
326  1.68789e+06 280  120 280 520
327      -520432 260  790 260   0
328 -1.54216e+06 260  790 260   0
329  1.30242e+06 280  120 280 520
330 -1.21538e+06 280  120 280 520
331 -1.18997e+06 260  790 260   0
332  1.11044e+06 260  790 260   0
333 -1.64452e+06 280  120 280 520
334      -684818 280  120 280 520
335  1.50253e+06 260  790 260   0
336       625690 260  790 260   0
